# dimensionless total lensed [l(l+1)/2pi] C_l's
# for l=2 to 2500, i.e. number of multipoles equal to 2499
#
# -> if you prefer output in CAMB/HealPix/LensPix units/order, set 'format' to 'camb' in input file
# -> if you don't want to see such a header, set 'headers' to 'no' in input file
# -> for CMB lensing (phi), these are C_l^phi-phi for the lensing potential.
#    Remember the conversion factors:
#    C_l^dd (deflection) = l(l+1) C_l^phi-phi
#    C_l^gg (shear/convergence) = 1/4 (l(l+1))^2 C_l^phi-phi
#
# 1:l     2:TT                     3:EE                     4:TE                     5:BB                     6:phiphi                 7:TPhi                   8:Ephi               
    2       5.653676026230e-10       2.193033541956e-15       1.041596203427e-12       4.424457145811e-20       1.562746152213e-09       7.607832422302e-10       1.205196741625e-12 
    3       5.300955721651e-10       8.200771093429e-16       5.626455587661e-13       8.929102846647e-20       1.048007474165e-09       5.996604617567e-10       4.603217583242e-13 
    4       4.526149751578e-10       9.886609717040e-16       3.478790284891e-13       1.505524183779e-19       7.355078904139e-10       4.483205816016e-10       5.251028451154e-14 
    5       3.934283482088e-10       1.920979111845e-15       2.978390578958e-13       2.289669538532e-19       5.418012983172e-10       3.414905734918e-10      -9.571914175567e-14 
    6       3.537748105930e-10       3.495022133761e-15       2.976866665955e-13       3.256005347823e-19       4.139356868770e-10       2.666827202717e-10      -1.498868098121e-13 
    7       3.290104967245e-10       5.793129996580e-15       2.997400451462e-13       4.415837515305e-19       3.249200531245e-10       2.128759250310e-10      -1.681270238647e-13 
    8       3.144818640991e-10       8.923643756736e-15       2.789654885062e-13       5.780440226161e-19       2.604299891872e-10       1.730257069862e-10      -1.723109381539e-13 
    9       3.074451887227e-10       1.298182054066e-14       2.242028571839e-13       7.360364599003e-19       2.122535506089e-10       1.427606546634e-10      -1.710955349302e-13 
   10       3.061135612644e-10       1.803302322468e-14       1.290453593770e-13       9.164771728211e-19       1.753769262329e-10       1.193390927776e-10      -1.678221403106e-13 
   11       3.087201911897e-10       2.411006473266e-14      -9.586279532748e-15       1.120082661462e-18       1.475480734683e-10       1.040434880757e-10      -1.613757828941e-13 
   12       3.146015319260e-10       3.121437567461e-14      -1.925275506843e-13       1.347318707359e-18       1.243977342949e-10       8.899493201959e-11      -1.564440787745e-13 
   13       3.232375895572e-10       3.931081017009e-14      -4.209465852494e-13       1.598361760166e-18       1.058981060986e-10       7.665269700895e-11      -1.602693528970e-13 
   14       3.339261039189e-10       4.832573460466e-14      -6.942036363317e-13       1.873075254724e-18       9.076525603468e-11       6.705669444359e-11      -1.435693096002e-13 
   15       3.463566845455e-10       5.815267920202e-14      -1.009155373628e-12       2.171002600950e-18       7.836068769016e-11       5.844088190471e-11      -1.533809000189e-13 
   16       3.603552799904e-10       6.865300802602e-14      -1.361919369458e-12       2.491377798653e-18       6.804875264804e-11       5.184314541136e-11      -1.364527202576e-13 
   17       3.757751665717e-10       7.965626192432e-14      -1.748259415378e-12       2.833153776108e-18       5.941490523776e-11       4.580212981877e-11      -1.442890807151e-13 
   18       3.924449362239e-10       9.096614080046e-14      -2.163212354927e-12       3.195038262144e-18       5.211069129822e-11       4.075536773077e-11      -1.453298262676e-13 
   19       4.102792153908e-10       1.023699602296e-13      -2.600477176005e-12       3.575601429794e-18       4.596398934050e-11       3.671157461464e-11      -1.344536747058e-13 
   20       4.290694423699e-10       1.136358365147e-13      -3.052699922110e-12       3.973247847599e-18       4.068906691724e-11       3.313747819997e-11      -1.274560990267e-13 
   21       4.487471118480e-10       1.245281329986e-13      -3.512068257736e-12       4.386430628994e-18       3.616819498083e-11       2.996312128872e-11      -1.242892333818e-13 
   22       4.692070093549e-10       1.348057443040e-13      -3.970268566945e-12       4.813611199791e-18       3.225860752998e-11       2.721415302534e-11      -1.197173875778e-13 
   23       4.903743465478e-10       1.442397662010e-13      -4.418964289647e-12       5.253475751707e-18       2.888174814189e-11       2.483912042058e-11      -1.137982464742e-13 
   24       5.121244838695e-10       1.526110065451e-13      -4.849602116241e-12       5.704895388246e-18       2.593418754012e-11       2.273216799328e-11      -1.081811106811e-13 
   25       5.343503871927e-10       1.597261948476e-13      -5.253369465073e-12       6.167131615075e-18       2.336352199519e-11       2.086206971062e-11      -1.028506778945e-13 
   26       5.569067919887e-10       1.654160259490e-13      -5.621363011548e-12       6.639794937380e-18       2.110533948587e-11       1.919942792132e-11      -9.725469497592e-14 
   27       5.796653636946e-10       1.695489299501e-13      -5.945001250346e-12       7.122993625540e-18       1.911872571469e-11       1.771124800182e-11      -9.131744598422e-14 
   28       6.024744538853e-10       1.720311296569e-13      -6.216010742442e-12       7.617297888688e-18       1.735534147672e-11       1.635426100911e-11      -8.509676287457e-14 
   29       6.252131309576e-10       1.728207389803e-13      -6.426730210612e-12       8.123779695713e-18       1.579825107589e-11       1.512052258957e-11      -7.865219419355e-14 
   30       6.477350706481e-10       1.719249870784e-13      -6.570045339879e-12       8.644042554565e-18       1.442281934781e-11       1.400201790930e-11      -7.203152622796e-14 
   31       6.698639512897e-10       1.694024086410e-13      -6.639469882641e-12       9.180175193823e-18       1.319087720839e-11       1.298262766015e-11      -6.533528132940e-14 
   32       6.914651312619e-10       1.653694500354e-13      -6.629415755643e-12       9.734494266101e-18       1.209020927034e-11       1.206345941709e-11      -5.896645214120e-14 
   33       7.123951526271e-10       1.600043439830e-13      -6.535201349630e-12       1.030977008795e-17       1.110728852164e-11       1.124531277268e-11      -5.348055665378e-14 
   34       7.324923673648e-10       1.535472431608e-13      -6.353107134877e-12       1.090915606637e-17       1.022146096961e-11       1.052051586224e-11      -4.929839324621e-14 
   35       7.516185878631e-10       1.462899804784e-13      -6.080439750883e-12       1.153558600562e-17       9.424492540551e-12       9.870170650172e-12      -4.591414033907e-14 
   36       7.696287544757e-10       1.385903264417e-13      -5.715670511973e-12       1.219220511137e-17       8.706491305912e-12       9.264469745613e-12      -4.239066710162e-14 
   37       7.863709635580e-10       1.308660978145e-13      -5.258439542901e-12       1.288222126663e-17       8.053951865866e-12       8.672637918037e-12      -3.783800162176e-14 
   38       8.017297218878e-10       1.235506776258e-13      -4.709264726985e-12       1.360778591973e-17       7.462981240012e-12       8.097591754461e-12      -3.239844421228e-14 
   39       8.155954495491e-10       1.171289723198e-13      -4.069907443407e-12       1.437074438161e-17       6.929685765958e-12       7.552186271324e-12      -2.658492731124e-14 
   40       8.278522206441e-10       1.121534778132e-13      -3.343575888815e-12       1.517292384168e-17       6.446205793072e-12       7.049906336965e-12      -2.102659676450e-14 
   41       8.383873508498e-10       1.092223349692e-13      -2.534766442437e-12       1.601574349399e-17       6.002995427185e-12       6.601426911701e-12      -1.630427658007e-14 
   42       8.471251802928e-10       1.088970948676e-13      -1.648489432465e-12       1.689891467624e-17       5.597351150795e-12       6.203005508783e-12      -1.237504668602e-14 
   43       8.540034013645e-10       1.117636513369e-13      -6.909567250785e-13       1.782130189651e-17       5.227101641235e-12       5.844270154164e-12      -8.972527564700e-15 
   44       8.589640589148e-10       1.184566126646e-13       3.301039942171e-13       1.878123203116e-17       4.888086994392e-12       5.511054290709e-12      -5.757997262228e-15 
   45       8.619587759649e-10       1.296220699858e-13       1.405860195287e-12       1.977633136104e-17       4.575372632242e-12       5.189135755440e-12      -2.407540955801e-15 
   46       8.629658874195e-10       1.457890812894e-13       2.527944267078e-12       2.080306281958e-17       4.287681618530e-12       4.877397349499e-12       1.084648228970e-15 
   47       8.619787220351e-10       1.674623272272e-13       3.687215665781e-12       2.185698959389e-17       4.024029133222e-12       4.578159947822e-12       4.626678586960e-15 
   48       8.590014453331e-10       1.951568062081e-13       4.873258832229e-12       2.293284837627e-17       3.782400464526e-12       4.293497817794e-12       8.112124684340e-15 
   49       8.540495230901e-10       2.293971090531e-13       6.074330746044e-12       2.402450629118e-17       3.559677817188e-12       4.025209732311e-12       1.141932055946e-14 
   50       8.471524666069e-10       2.706714617019e-13       7.278021462056e-12       2.512529158466e-17       3.352448429592e-12       3.774611115447e-12       1.444069635047e-14 
   51       8.383618717063e-10       3.192808298000e-13       8.473568765569e-12       2.622919144313e-17       3.159857327259e-12       3.541910983822e-12       1.718181567310e-14 
   52       8.277463630014e-10       3.754476014548e-13       9.650081148237e-12       2.732990485449e-17       2.981402400696e-12       3.326615950153e-12       1.968799907389e-14 
   53       8.153900601580e-10       4.393544531491e-13       1.079586129303e-11       2.842047238277e-17       2.816089809286e-12       3.127657985391e-12       2.201732039646e-14 
   54       8.013931487626e-10       5.111414958343e-13       1.189838718051e-11       2.949325068391e-17       2.662402262950e-12       2.943357109785e-12       2.424131379062e-14 
   55       7.858677411359e-10       5.908708145290e-13       1.294513160683e-11       3.054081861228e-17       2.518690934965e-12       2.771761935765e-12       2.642420739050e-14 
   56       7.689229468402e-10       6.784163094034e-13       1.392630242692e-11       3.155901751721e-17       2.384537875305e-12       2.611855835032e-12       2.855296354301e-14 
   57       7.506770932855e-10       7.735414900132e-13       1.483274995271e-11       3.254462158368e-17       2.259676492850e-12       2.462585059724e-12       3.059109745236e-14 
   58       7.312624897693e-10       8.759256496415e-13       1.565520165507e-11       3.349448299024e-17       2.143582695264e-12       2.322485047203e-12       3.249850103145e-14 
   59       7.108258148364e-10       9.851597410092e-13       1.638427593554e-11       3.440554272046e-17       2.035459675763e-12       2.189657832605e-12       3.423131328776e-14 
   60       6.895285036377e-10       1.100742251985e-12       1.701049589791e-11       3.527484137439e-17       1.934222699875e-12       2.061749461400e-12       3.574179070930e-14 
   61       6.675377232706e-10       1.222079778675e-12       1.752515701550e-11       3.610033546300e-17       1.838764715409e-12       1.936592149687e-12       3.699056103046e-14 
   62       6.449960553535e-10       1.348498225369e-12       1.792312656211e-11       3.688353594270e-17       1.748857267361e-12       1.814350300010e-12       3.798689185775e-14 
   63       6.220456647860e-10       1.479226811356e-12       1.820069984112e-11       3.762748380864e-17       1.664425727176e-12       1.695818292200e-12       3.875727190190e-14 
   64       5.988371982414e-10       1.613389698876e-12       1.835484179346e-11       3.833603252131e-17       1.585280135734e-12       1.581796775550e-12       3.933408327822e-14 
   65       5.755298728902e-10       1.750002017871e-12       1.838322786274e-11       3.901388437534e-17       1.511108900428e-12       1.473091173322e-12       3.975586480773e-14 
   66       5.522915651230e-10       1.887965890740e-12       1.828428486035e-11       3.966662686839e-17       1.441472492237e-12       1.370510187243e-12       4.006757531840e-14 
   67       5.292988992735e-10       2.026066457093e-12       1.805723183060e-11       4.030076906994e-17       1.375797142795e-12       1.274864302004e-12       4.032085694635e-14 
   68       5.067239458786e-10       2.163055963184e-12       1.770241680189e-11       4.092305332734e-17       1.313511776148e-12       1.186786095184e-12       4.056195442050e-14 
   69       4.846909883148e-10       2.297934701787e-12       1.722231493041e-11       4.153814713735e-17       1.254505112144e-12       1.106152229874e-12       4.079204183995e-14 
   70       4.633111150803e-10       2.429720118388e-12       1.662080694771e-11       4.215054677272e-17       1.198750286931e-12       1.032541117847e-12       4.099929312753e-14 
   71       4.426945859632e-10       2.557362091210e-12       1.590294873387e-11       4.276527807965e-17       1.146167221048e-12       9.653948070596e-13       4.117046331033e-14 
   72       4.229505782981e-10       2.679741208266e-12       1.507501975001e-11       4.338791431313e-17       1.096619979786e-12       9.040129287508e-13       4.129083611713e-14 
   73       4.041869332214e-10       2.795667044405e-12       1.414457147082e-11       4.402459397211e-17       1.049914133556e-12       8.475466445338e-13       4.134417157585e-14 
   74       3.865099019279e-10       2.903876438363e-12       1.312047581710e-11       4.468203863484e-17       1.005794118247e-12       7.949925934898e-13       4.131265361099e-14 
   75       3.700238919265e-10       3.003031769803e-12       1.201297358831e-11       4.536757079406e-17       9.639405955968e-13       7.451868392615e-13       4.117683764105e-14 
   76       3.548217843819e-10       3.091869850767e-12       1.083300321724e-11       4.608759188801e-17       9.240424306426e-13       6.970673932427e-13       4.092007822300e-14 
   77       3.409544085921e-10       3.169683754196e-12       9.589938658084e-12       4.684265655334e-17       8.860336122247e-13       6.505304322950e-13       4.054285995844e-14 
   78       3.284550141716e-10       3.235926127122e-12       8.293525066954e-12       4.763152836834e-17       8.498949411194e-13       6.057199449588e-13       4.005099683385e-14 
   79       3.173477662823e-10       3.290067714439e-12       6.954595014791e-12       4.845262645395e-17       8.155821541063e-13       5.627724700367e-13       3.945142283667e-14 
   80       3.076472985429e-10       3.331598724421e-12       5.585102162296e-12       4.930401173411e-17       7.830248144158e-13       5.218165510581e-13       3.875223141970e-14 
   81       2.993582659366e-10       3.360030194243e-12       4.198154934891e-12       5.018337319604e-17       7.521252021771e-13       4.829721907425e-13       3.796271496559e-14 
   82       2.924748977201e-10       3.374895355495e-12       2.808050197674e-12       5.108801415063e-17       7.227572048663e-13       4.463503054640e-13       3.709340425120e-14 
   83       2.869805503319e-10       3.375750999704e-12       1.430306930375e-12       5.201483849271e-17       6.947652077538e-13       4.120521797151e-13       3.615610791211e-14 
   84       2.828482664564e-10       3.362303366119e-12       8.007804513183e-14       5.296067072834e-17       6.679983872944e-13       3.801491714376e-13       3.516221394033e-14 
   85       2.800435380476e-10       3.334806792576e-12      -1.232990435270e-12       5.392330711059e-17       6.424225538177e-13       3.506191573478e-13       3.411718420744e-14 
   86       2.785211837659e-10       3.293733963386e-12      -2.500413016113e-12       5.490061437900e-17       6.180249018846e-13       3.233985023920e-13       3.302521536255e-14 
   87       2.782239597077e-10       3.239660670388e-12      -3.713312325100e-12       5.589020347567e-17       5.947797489049e-13       2.984000075867e-13       3.189090575404e-14 
   88       2.790821292241e-10       3.173269271275e-12      -4.862412695505e-12       5.688942141512e-17       5.726480205925e-13       2.755120325640e-13       3.071926568450e-14 
   89       2.810130327399e-10       3.095352147927e-12      -5.938033749324e-12       5.789534315412e-17       5.515767364208e-13       2.545976181178e-13       2.951572766562e-14 
   90       2.839206575718e-10       3.006815164739e-12      -6.930083980418e-12       5.890476346158e-17       5.314984950778e-13       2.354936087494e-13       2.828615667309e-14 
   91       2.876952077472e-10       2.908681126948e-12      -7.828054337666e-12       5.991418878839e-17       5.123309599215e-13       2.180097752130e-13       2.703686040155e-14 
   92       2.922126738232e-10       2.802093238965e-12      -8.621011808111e-12       6.091982913724e-17       4.939763444353e-13       2.019279370620e-13       2.577459951946e-14 
   93       2.973495461485e-10       2.688274922169e-12      -9.299435640149e-12       6.191869652067e-17       4.763427528317e-13       1.870444426565e-13       2.450575230465e-14 
   94       3.030304203367e-10       2.568394843576e-12      -9.861055860140e-12       6.291210697608e-17       4.594129909800e-13       1.733068234433e-13       2.323364255806e-14 
   95       3.091867896128e-10       2.443687887122e-12      -1.030588509091e-11       6.390269267298e-17       4.431852014606e-13       1.606961657976e-13       2.196082689833e-14 
   96       3.157423199969e-10       2.315499806419e-12      -1.063447277711e-11       6.489334922030e-17       4.276517188802e-13       1.491853063469e-13       2.068990323814e-14 
   97       3.226126279947e-10       2.185290084043e-12      -1.084792406204e-11       6.588724272624e-17       4.127988553286e-13       1.387385496770e-13       1.942350943140e-14 
   98       3.297050582877e-10       2.054634790811e-12      -1.094791866433e-11       6.688781685804e-17       3.986066858365e-13       1.293113860394e-13       1.816432192048e-14 
   99       3.369184614230e-10       1.925229445067e-12      -1.093672975479e-11       6.789879990183e-17       3.850488338327e-13       1.208502090569e-13       1.691505438350e-14 
  100       3.441429715044e-10       1.798891871964e-12      -1.081724283310e-11       6.892421182238e-17       3.720922566012e-13       1.132920334310e-13       1.567845638148e-14 
  101       3.512597838816e-10       1.677565062749e-12      -1.059297460465e-11       6.996837132295e-17       3.596970307389e-13       1.065642126479e-13       1.445731200565e-14 
  102       3.581409328415e-10       1.563320034041e-12      -1.026809185725e-11       7.103590290510e-17       3.478161376128e-13       1.005841566855e-13       1.325443852462e-14 
  103       3.646490692975e-10       1.458358687119e-12      -9.847430337900e-12       7.213174392845e-17       3.363952488170e-13       9.525904971932e-14       1.207268503167e-14 
  104       3.706596457848e-10       1.364719048649e-12      -9.336686210001e-12       7.325942494086e-17       3.253841629612e-13       9.050298310186e-14       1.091455490006e-14 
  105       3.761313633410e-10       1.283339486835e-12      -8.742979222095e-12       7.441563089849e-17       3.147733376326e-13       8.629159815710e-14       9.781017979046e-15 
  106       3.810448708245e-10       1.214872826553e-12      -8.074401160833e-12       7.559491498707e-17       3.045619153739e-13       8.261433291790e-14       8.672534673952e-15 
  107       3.853812310421e-10       1.159972273313e-12      -7.339870586710e-12       7.679134797242e-17       2.947464275731e-13       7.945757618652e-14       7.589412389101e-15 
