# dimensionless total lensed [l(l+1)/2pi] C_l's
# for l=2 to 2500, i.e. number of multipoles equal to 2499
#
# -> if you prefer output in CAMB/HealPix/LensPix units/order, set 'format' to 'camb' in input file
# -> if you don't want to see such a header, set 'headers' to 'no' in input file
# -> for CMB lensing (phi), these are C_l^phi-phi for the lensing potential.
#    Remember the conversion factors:
#    C_l^dd (deflection) = l(l+1) C_l^phi-phi
#    C_l^gg (shear/convergence) = 1/4 (l(l+1))^2 C_l^phi-phi
#
# 1:l     2:TT                     3:EE                     4:TE                     5:BB                     6:phiphi                 7:TPhi                   8:Ephi               
    2       1.347324332707e-10       6.943722168692e-15       5.013075557627e-13       2.457249666522e-19       9.289437225356e-09       3.807510965164e-10      -2.473961701569e-12 
    3       1.295424774762e-10       1.197941508562e-14       6.190971153737e-13       4.916834717793e-19       5.728035040124e-09       2.776937343557e-10      -2.188453501076e-12 
    4       1.235404683760e-10       1.434476124243e-14       6.378805327984e-13       8.199834498817e-19       3.987507615171e-09       2.138814990059e-10      -1.767403097811e-12 
    5       1.185985244249e-10       1.366255103394e-14       5.983635622514e-13       1.230914383032e-18       2.975831829698e-09       1.710187928321e-10      -1.336394319746e-12 
    6       1.149212612018e-10       1.089955660655e-14       5.287969531370e-13       1.724819984650e-18       2.323476622469e-09       1.404818640961e-10      -9.384980371276e-13 
    7       1.123646333087e-10       7.485514896681e-15       4.487375838883e-13       2.302087151680e-18       1.872994152627e-09       1.177120203712e-10      -5.966205043766e-13 
    8       1.107186010164e-10       4.556198816792e-15       3.700769368841e-13       2.963133697554e-18       1.546121748391e-09       1.001536065124e-10      -3.217072018541e-13 
    9       1.097931235453e-10       2.635207758279e-15       2.998745590877e-13       3.708395339331e-18       1.300277684525e-09       8.631047447987e-11      -1.166641468418e-13 
   10       1.094834843168e-10       1.686588970218e-15       2.419792695575e-13       4.538312439456e-18       1.110421800194e-09       7.520811317203e-11       2.178659015150e-14 
   11       1.096200336450e-10       1.368778300390e-15       1.981358759432e-13       5.453317009730e-18       9.323301872072e-10       6.634854874807e-11       1.006491722774e-13 
   12       1.100776966074e-10       1.304915637139e-15       1.685572633116e-13       6.453820471982e-18       8.142095559895e-10       5.886289395094e-11       1.332039235012e-13 
   13       1.108563470143e-10       1.250536986435e-15       1.520469562789e-13       7.540202637161e-18       7.173104910350e-10       5.240419476137e-11       1.299708239329e-13 
   14       1.118360344687e-10       1.129768349983e-15       1.463142958012e-13       8.712802313440e-18       6.367399292637e-10       4.713827198936e-11       1.040525457282e-13 
   15       1.130063008933e-10       9.798467652496e-16       1.485337914114e-13       9.971909886471e-18       5.689705000934e-10       4.271333897548e-11       6.621407922078e-14 
   16       1.142939868277e-10       8.683950386984e-16       1.559321249778e-13       1.131776213399e-17       5.113822908944e-10       3.874494283210e-11       2.524059742198e-14 
   17       1.157053128732e-10       8.342182242137e-16       1.660548660008e-13       1.275053944559e-17       4.620036194788e-10       3.536503889996e-11      -1.167812642775e-14 
   18       1.172329110747e-10       8.696874452729e-16       1.767363042632e-13       1.427036435243e-17       4.191637309269e-10       3.245057365967e-11      -4.011282390625e-14 
   19       1.188637550073e-10       9.437307543681e-16       1.868541647677e-13       1.587730951614e-17       3.821813614270e-10       2.990064533799e-11      -5.829133518493e-14 
   20       1.205346732863e-10       1.015961584761e-15       1.955216894500e-13       1.757138941644e-17       3.496219174473e-10       2.759413538375e-11      -6.591520471892e-14 
   21       1.222661854942e-10       1.076846690793e-15       2.025327022520e-13       1.935258411854e-17       3.209702174491e-10       2.552359504094e-11      -6.428601944964e-14 
   22       1.240728344994e-10       1.130426844151e-15       2.080149389236e-13       2.122082942617e-17       2.955381470602e-10       2.368464450317e-11      -5.599385312879e-14 
   23       1.259434771985e-10       1.195921375625e-15       2.124056858211e-13       2.317604562341e-17       2.729736519037e-10       2.205005680124e-11      -4.360302851113e-14 
   24       1.278401178805e-10       1.297667798781e-15       2.163183060619e-13       2.521812757282e-17       2.527523397397e-10       2.056623360179e-11      -3.005806938937e-14 
   25       1.297710962993e-10       1.443338712879e-15       2.202241781400e-13       2.734697882470e-17       2.346346611519e-10       1.921966638720e-11      -1.744460511850e-14 
   26       1.317427440743e-10       1.633244775219e-15       2.245522455890e-13       2.956249940479e-17       2.182911984642e-10       1.799608673578e-11      -7.607833168341e-15 
   27       1.337489783178e-10       1.860445673701e-15       2.295085873186e-13       3.186461610344e-17       2.035254151586e-10       1.688256706524e-11      -1.408860727125e-15 
   28       1.357715059123e-10       2.115481016624e-15       2.351638191465e-13       3.425327479576e-17       1.900823864090e-10       1.585992865970e-11       7.996733451414e-16 
   29       1.378175555695e-10       2.396805808162e-15       2.413240233949e-13       3.672847699523e-17       1.778928186677e-10       1.492659939663e-11      -4.939129450811e-16 
   30       1.398912313387e-10       2.705024437989e-15       2.476258650849e-13       3.929025876119e-17       1.668248429014e-10       1.407830142040e-11      -4.269538989598e-15 
   31       1.419871345284e-10       3.040218970210e-15       2.536177575167e-13       4.193869117433e-17       1.566515806357e-10       1.330328192880e-11      -9.267500230386e-15 
   32       1.441121003129e-10       3.401004233128e-15       2.589198065538e-13       4.467390829402e-17       1.473203224368e-10       1.259666180260e-11      -1.460482428387e-14 
   33       1.462690927594e-10       3.785035263516e-15       2.631107236555e-13       4.749609769036e-17       1.387651708840e-10       1.194992862366e-11      -1.935623183505e-14 
   34       1.484538425433e-10       4.189980653516e-15       2.657604858224e-13       5.040549474896e-17       1.308663986574e-10       1.134999254541e-11      -2.258721204081e-14 
   35       1.506673024175e-10       4.616248140137e-15       2.667100573269e-13       5.340237080440e-17       1.235833005094e-10       1.079157927764e-11      -2.407549419960e-14 
   36       1.529057758842e-10       5.065217684005e-15       2.658886115299e-13       5.648704865460e-17       1.168569965412e-10       1.026827511315e-11      -2.384209107402e-14 
   37       1.551612616003e-10       5.538706627498e-15       2.632628195718e-13       5.965988856923e-17       1.105994666341e-10       9.771916245772e-12      -2.201267339294e-14 
   38       1.574371484577e-10       6.039520570348e-15       2.589106231740e-13       6.292121417520e-17       1.047944675650e-10       9.303193029620e-12      -1.897601306938e-14 
   39       1.597365317652e-10       6.571137408272e-15       2.529763102664e-13       6.627136762703e-17       9.942361617239e-11       8.864100716688e-12      -1.529100533823e-14 
   40       1.620572998874e-10       7.137605729467e-15       2.456549429332e-13       6.971073280669e-17       9.443570675643e-11       8.454879331780e-12      -1.165586416116e-14 
   41       1.643948145765e-10       7.742645877948e-15       2.371477004037e-13       7.323969960141e-17       8.976454530666e-11       8.074371381387e-12      -8.761126596318e-15 
   42       1.667523386981e-10       8.386515817000e-15       2.275025995717e-13       7.685853646908e-17       8.539631768967e-11       7.721651076613e-12      -6.769397721127e-15 
   43       1.691330667200e-10       9.068184777781e-15       2.167274021137e-13       8.056748078733e-17       8.131933273410e-11       7.394634173632e-12      -5.681450713718e-15 
   44       1.715368533288e-10       9.786151451445e-15       2.048330129364e-13       8.436677358692e-17       7.750380340207e-11       7.089458878053e-12      -5.475977182346e-15 
   45       1.739617669195e-10       1.053888926876e-14       1.918106273843e-13       8.825662221320e-17       7.391247160739e-11       6.801663916854e-12      -6.083677084741e-15 
   46       1.764100916503e-10       1.132640879683e-14       1.775551521853e-13       9.223707509684e-17       7.053966421919e-11       6.530464760937e-12      -7.304363482981e-15 
   47       1.788835511220e-10       1.214911348663e-14       1.619187990936e-13       9.630810947384e-17       6.738146349862e-11       6.275523376917e-12      -8.862135947481e-15 
   48       1.813813566601e-10       1.300736473041e-14       1.447305652201e-13       1.004696632997e-16       6.442392982216e-11       6.035685139348e-12      -1.042437142012e-14 
   49       1.838999817417e-10       1.390148038607e-14       1.257948663392e-13       1.047216330600e-16       6.164235635807e-11       5.808917896557e-12      -1.159860352464e-14 
   50       1.864351330625e-10       1.483174077515e-14       1.049347847836e-13       1.090638630059e-16       5.900871005172e-11       5.592935177469e-12      -1.203376535519e-14 
   51       1.889888178046e-10       1.579841201935e-14       8.213882318692e-14       1.134961144972e-16       5.651806484776e-11       5.387406605490e-12      -1.176355553421e-14 
   52       1.915638047826e-10       1.680172648782e-14       5.745162297161e-14       1.180180845530e-16       5.416805512978e-11       5.192242148048e-12      -1.095088068623e-14 
   53       1.941614761665e-10       1.784187478009e-14       3.093354676850e-14       1.226294111678e-16       5.195096496856e-11       5.006932357853e-12      -9.793386009732e-15 
   54       1.967817052798e-10       1.891900460219e-14       2.661411232985e-15       1.273296707186e-16       4.985336803651e-11       4.830519633600e-12      -8.525245810042e-15 
   55       1.994237652102e-10       2.003320849047e-14      -2.728607395933e-14       1.321184218456e-16       4.786022185314e-11       4.661931252979e-12      -7.372101415171e-15 
   56       2.020895989140e-10       2.118448598649e-14      -5.887790386999e-14       1.369953557989e-16       4.596916649770e-11       4.501141193106e-12      -6.398664005374e-15 
   57       2.047811474308e-10       2.237277009702e-14      -9.209221810253e-14       1.419601788996e-16       4.417914728559e-11       4.348246592100e-12      -5.626389313756e-15 
   58       2.074993099923e-10       2.359793609863e-14      -1.269019525131e-13       1.470125685727e-16       4.248608917131e-11       4.203116938478e-12      -5.076979157846e-15 
   59       2.102438619826e-10       2.485979997929e-14      -1.632747022573e-13       1.521521725652e-16       4.088271020824e-11       4.065379426879e-12      -4.772346545844e-15 
   60       2.130133728985e-10       2.615811688002e-14      -2.011725848368e-13       1.573786081633e-16       3.935833500845e-11       3.934404313804e-12      -4.734580782874e-15 
   61       2.158061842102e-10       2.749257223224e-14      -2.405634699502e-13       1.626915360770e-16       3.790185926521e-11       3.809483681744e-12      -4.974252833354e-15 
   62       2.186237850293e-10       2.886275637068e-14      -2.814579244087e-13       1.680909032419e-16       3.651184290895e-11       3.690447750199e-12      -5.452342902121e-15 
   63       2.214680520127e-10       3.026818143078e-14      -3.238803546173e-13       1.735767533770e-16       3.518836175993e-11       3.577161545339e-12      -6.109666279062e-15 
   64       2.243402088733e-10       3.170828639543e-14      -3.678585908086e-13       1.791491586816e-16       3.392997153425e-11       3.469335359718e-12      -6.877382158768e-15 
   65       2.272407779689e-10       3.318243530484e-14      -4.134241107495e-13       1.848082214230e-16       3.273362128451e-11       3.366516244707e-12      -7.676588791928e-15 
   66       2.301695318937e-10       3.468991546641e-14      -4.606122634484e-13       1.905540755229e-16       3.159456684043e-11       3.268079502926e-12      -8.417918636727e-15 
   67       2.331254450670e-10       3.622993566458e-14      -5.094624928615e-13       1.963868881440e-16       3.050628424953e-11       3.173220180681e-12      -9.001133510241e-15 
   68       2.361073941439e-10       3.780169400882e-14      -5.600074701246e-13       2.023068604693e-16       2.946221255908e-11       3.081170309756e-12      -9.340361781305e-15 
   69       2.391165322556e-10       3.940460144319e-14      -6.122374330737e-13       2.083142266757e-16       2.846158571389e-11       2.991920765447e-12      -9.446653067838e-15 
   70       2.421543110974e-10       4.103810051792e-14      -6.661289896497e-13       2.144092576018e-16       2.750463228502e-11       2.905631064653e-12      -9.361500864505e-15 
   71       2.452217459411e-10       4.270159974948e-14      -7.216555111546e-13       2.205922630755e-16       2.659081162438e-11       2.822413873279e-12      -9.132927024376e-15 
   72       2.483193863762e-10       4.439447361151e-14      -7.787870722891e-13       2.268635934798e-16       2.571877409160e-11       2.742332272312e-12      -8.815732717011e-15 
   73       2.514472870521e-10       4.611606252567e-14      -8.374903911899e-13       2.332236413195e-16       2.488632128089e-11       2.665397023896e-12      -8.471749386542e-15 
   74       2.546049784191e-10       4.786567285255e-14      -8.977287694674e-13       2.396728427865e-16       2.409036624792e-11       2.591563837401e-12      -8.170089709758e-15 
   75       2.577914374697e-10       4.964257688255e-14      -9.594620322424e-13       2.462116793268e-16       2.332689373666e-11       2.520730635502e-12      -7.987398554184e-15 
   76       2.610056168248e-10       5.144591351840e-14      -1.022647670049e-12       2.528405931401e-16       2.259195724430e-11       2.452771527175e-12      -7.988736038757e-15 
   77       2.642482080525e-10       5.327436943375e-14      -1.087244637490e-12       2.595597124298e-16       2.188496804359e-11       2.387651922306e-12      -8.165647347565e-15 
   78       2.675201482359e-10       5.512643948564e-14      -1.153210141562e-12       2.663690786641e-16       2.120593645640e-11       2.325329539324e-12      -8.487203119541e-15 
   79       2.708220726339e-10       5.700051885241e-14      -1.220498466498e-12       2.732687280008e-16       2.055447001108e-11       2.265717611363e-12      -8.918221644231e-15 
   80       2.741542968719e-10       5.889490098825e-14      -1.289060938450e-12       2.802586910894e-16       1.992975493062e-11       2.208682905046e-12      -9.419122665461e-15 
   81       2.775167991327e-10       6.080777557764e-14      -1.358845890171e-12       2.873389928715e-16       1.933053762068e-11       2.154043739259e-12      -9.945781184990e-15 
   82       2.809092023471e-10       6.273722648987e-14      -1.429798625697e-12       2.945096523829e-16       1.875510615766e-11       2.101568003935e-12      -1.044938126617e-14 
   83       2.843307563849e-10       6.468122973352e-14      -1.501861385033e-12       3.017706825543e-16       1.820127177681e-11       2.050971178831e-12      -1.087626983762e-14 
   84       2.877807171462e-10       6.663780974591e-14      -1.574979231158e-12       3.091220940373e-16       1.766690112417e-11       2.001983116775e-12      -1.117969354022e-14 
   85       2.912595950535e-10       6.860554251137e-14      -1.649118909758e-12       3.165639078465e-16       1.715165494374e-11       1.954565453846e-12      -1.135756509777e-14 
   86       2.947680818431e-10       7.058313248677e-14      -1.724253065823e-12       3.240961444588e-16       1.665550502731e-11       1.908726776305e-12      -1.142071887670e-14 
   87       2.983066610927e-10       7.256926228889e-14      -1.800354662576e-12       3.317188198453e-16       1.617819995916e-11       1.864456247322e-12      -1.138163723485e-14 
   88       3.018755970822e-10       7.456259330997e-14      -1.877397045692e-12       3.394319453412e-16       1.571925586068e-11       1.821722781465e-12      -1.125450404016e-14 
   89       3.054749236558e-10       7.656176633332e-14      -1.955354007512e-12       3.472355275137e-16       1.527794713498e-11       1.780474219184e-12      -1.105525818931e-14 
   90       3.091044330828e-10       7.856540214889e-14      -2.034199851264e-12       3.551295680317e-16       1.485329721153e-11       1.740636501292e-12      -1.080164712643e-14 
   91       3.127636649193e-10       8.057210216887e-14      -2.113909455278e-12       3.631140635342e-16       1.444406929071e-11       1.702112843455e-12      -1.051328036175e-14 
   92       3.164518948694e-10       8.258044904325e-14      -2.194458337205e-12       3.711890054995e-16       1.404875708846e-11       1.664782910673e-12      -1.021168299026e-14 
   93       3.201684047546e-10       8.458896794175e-14      -2.275816088294e-12       3.793544844892e-16       1.366594245386e-11       1.628532848125e-12      -9.916274734132e-15 
   94       3.239133630622e-10       8.659600240137e-14      -2.357925407146e-12       3.876110211006e-16       1.329544985048e-11       1.593352333358e-12      -9.631499047230e-15 
   95       3.276870568530e-10       8.859982085754e-14      -2.440720016697e-12       3.959592847786e-16       1.293734920476e-11       1.559250662375e-12      -9.357848170356e-15 
   96       3.314896152719e-10       9.059865438872e-14      -2.524130986755e-12       4.043999951601e-16       1.259160034130e-11       1.526226797303e-12      -9.095762746736e-15 
   97       3.353210022677e-10       9.259069679203e-14      -2.608086707212e-12       4.129339233753e-16       1.225804876351e-11       1.494268964433e-12      -8.845629411028e-15 
   98       3.391810093132e-10       9.457410465888e-14      -2.692512861252e-12       4.215618933498e-16       1.193642143422e-11       1.463354252271e-12      -8.607778378329e-15 
   99       3.430692481253e-10       9.654699745069e-14      -2.777332398563e-12       4.302847831057e-16       1.162632255629e-11       1.433448209577e-12      -8.382481033183e-15 
  100       3.469851433853e-10       9.850745757447e-14      -2.862465508542e-12       4.391035260636e-16       1.132722935321e-11       1.404504443413e-12      -8.169947518584e-15 
  101       3.509279254585e-10       1.004535304586e-13      -2.947829593509e-12       4.480191123442e-16       1.103848784974e-11       1.376464217189e-12      -7.970324324983e-15 
  102       3.548966231150e-10       1.023832246282e-13      -3.033339241915e-12       4.570325900700e-16       1.075930865253e-11       1.349256048704e-12      -7.783691879296e-15 
  103       3.588900562492e-10       1.042945117813e-13      -3.118906201548e-12       4.661450666666e-16       1.048876273070e-11       1.322795308196e-12      -7.610062133906e-15 
  104       3.629071044257e-10       1.061854019010e-13      -3.204445062419e-12       4.753576054866e-16       1.022599218060e-11       1.297003973802e-12      -7.449328816242e-15 
  105       3.669475695092e-10       1.080541799870e-13      -3.289891237392e-12       4.846708969705e-16       9.970884033324e-12       1.271873803019e-12      -7.301115716500e-15 
  106       3.710114165339e-10       1.098992015932e-13      -3.375185371833e-12       4.940855452841e-16       9.723480026329e-12       1.247410985152e-12      -7.164903315614e-15 
  107       3.750985040864e-10       1.117188215355e-13      -3.460267886361e-12       5.036021691797e-16       9.483767912932e-12       1.223616567663e-12      -7.040071398746e-15 
