# dimensionless total lensed [l(l+1)/2pi] C_l's
# for l=2 to 2500, i.e. number of multipoles equal to 2499
#
# -> if you prefer output in CAMB/HealPix/LensPix units/order, set 'format' to 'camb' in input file
# -> if you don't want to see such a header, set 'headers' to 'no' in input file
# -> for CMB lensing (phi), these are C_l^phi-phi for the lensing potential.
#    Remember the conversion factors:
#    C_l^dd (deflection) = l(l+1) C_l^phi-phi
#    C_l^gg (shear/convergence) = 1/4 (l(l+1))^2 C_l^phi-phi
#
# 1:l     2:TT                     3:EE                     4:TE                     5:BB                     6:phiphi                 7:TPhi                   8:Ephi               
    2       2.063515751018e-07       5.070542724333e-16       3.135897679392e-12       5.290733491590e-24       7.763314549692e-10       1.164792969118e-08       4.021986920238e-13 
    3       1.813861008193e-07       1.296010874096e-15       5.391067510195e-12       9.907996512341e-24       2.501922507195e-10       6.075483029508e-09       3.984916095274e-13 
    4       1.630042874481e-07       2.749594667419e-15       7.924310947992e-12       1.506761130724e-23       1.065980167208e-10       3.711762917530e-09       3.924788421546e-13 
    5       1.486261006395e-07       4.966894423721e-15       1.047785138031e-11       2.001049215436e-23       5.336140375664e-11       2.487100655183e-09       3.784420928582e-13 
    6       1.368972980203e-07       7.883569359011e-15       1.276388727994e-11       2.390067332226e-23       2.965082512068e-11       1.769113496690e-09       3.563015989155e-13 
    7       1.270657778507e-07       1.127007762105e-14       1.464396709182e-11       2.589129185555e-23       1.775266119275e-11       1.313170321188e-09       3.288374078223e-13 
    8       1.186709807023e-07       1.475611749336e-14       1.603359344965e-11       2.519508277022e-23       1.124566610908e-11       1.006444062811e-09       2.982812492202e-13 
    9       1.113424224172e-07       1.790874900296e-14       1.690354896433e-11       2.115537269710e-23       7.446093150184e-12       7.908448422503e-10       2.663181557067e-13 
   10       1.048680549073e-07       2.032499262558e-14       1.728177940440e-11       1.331344333336e-23       5.109469063944e-12       6.341168859754e-10       2.342860154033e-13 
   11       9.914759777676e-08       2.170085636584e-14       1.722809591208e-11       1.468228266031e-24       5.092784793386e-12       5.601890714920e-10       1.928036629315e-13 
   12       9.405725229408e-08       2.187696499007e-14       1.680635875875e-11      -1.427539614784e-23       3.730621593865e-12       4.574462987499e-10       1.647664656317e-13 
   13       8.944948455506e-08       2.086422065678e-14       1.607777432869e-11      -3.347297468964e-23       2.794212516219e-12       3.779814015542e-10       1.388977288779e-13 
   14       8.521611124300e-08       1.883797881139e-14       1.510739659553e-11      -5.532407771884e-23       2.135247091740e-12       3.147654465710e-10       1.152533573308e-13 
   15       8.130033268789e-08       1.609754354314e-14       1.396493958295e-11      -7.867492515266e-23       1.655420793262e-12       2.626946258801e-10       9.382783177862e-14 
   16       7.767266762626e-08       1.300378147476e-14       1.271874746352e-11      -1.020408946749e-22       1.288408643658e-12       2.180931479552e-10       7.464008788918e-14 
   17       7.430877351280e-08       9.912570192925e-15       1.142959274635e-11      -1.236487984856e-22       1.005047965387e-12       1.877331982142e-10       5.866976389365e-14 
   18       7.117309814725e-08       7.124429199797e-15       1.014647058707e-11      -1.414871463269e-22       8.082248423048e-13       1.638354935863e-10       4.519187263353e-14 
   19       6.827081954993e-08       4.817915136824e-15       8.909490757163e-12      -1.534369598042e-22       6.689390947698e-13       1.427319820477e-10       3.387777769377e-14 
   20       6.554607397583e-08       3.094314592815e-15       7.744816462216e-12      -1.572480643640e-22       5.437794184441e-13       1.233896291272e-10       2.443294426237e-14 
   21       6.299566351153e-08       1.939600493687e-15       6.674240895278e-12      -1.507871106746e-22       4.370415964678e-13       1.065379371738e-10       1.684561816598e-14 
   22       6.059299063921e-08       1.253768452282e-15       5.707982216102e-12      -1.320001891742e-22       3.645629109515e-13       9.316082481374e-11       1.103478991253e-14 
   23       5.833440251811e-08       9.208309736025e-16       4.853575009889e-12      -9.915725682127e-23       3.147096311058e-13       8.282060140194e-11       6.777219356080e-15 
   24       5.619705376890e-08       7.917051600486e-16       4.109343744283e-12      -5.081553590920e-23       2.668733505419e-13       7.433250144452e-11       3.703967012708e-15 
   25       5.417787565299e-08       7.658429056648e-16       3.474218608931e-12       1.395661566038e-23       2.214076125584e-13       6.673339625150e-11       1.597122046863e-15 
   26       5.226138898484e-08       7.517910133987e-16       2.940643811136e-12       9.561536375246e-23       1.845057389738e-13       5.919562264806e-11       2.330457043840e-16 
   27       5.044174508445e-08       7.173207111144e-16       2.501451300527e-12       1.939852642931e-22       1.560485034487e-13       5.223728386493e-11      -5.263919903516e-16 
   28       4.870484382074e-08       6.509239995853e-16       2.145359695081e-12       3.082927338005e-22       1.336445643324e-13       4.667708706569e-11      -8.231893408621e-16 
   29       4.705425671597e-08       5.640306506519e-16       1.866400738849e-12       4.371546396991e-22       1.161170160941e-13       4.240931821468e-11      -7.633349343853e-16 
   30       4.548497111561e-08       4.791468216659e-16       1.655138823918e-12       5.785134752243e-22       1.022096837881e-13       3.890619501832e-11      -4.758965431480e-16 
   31       4.398020639586e-08       4.194680245915e-16       1.498032389944e-12       7.296923965339e-22       9.038384714793e-14       3.557549007795e-11      -1.085127102842e-16 
   32       4.254121389611e-08       3.891251484814e-16       1.388830630992e-12       8.877457840336e-22       8.005958350584e-14       3.230641778803e-11       2.795027577156e-16 
   33       4.116600393415e-08       3.854911018561e-16       1.320728965329e-12       1.049162222984e-21       7.079503840472e-14       2.911938876343e-11       6.479700950663e-16 
   34       3.984516331936e-08       4.033445106878e-16       1.284858581001e-12       1.209942002798e-21       6.212669067914e-14       2.604689605011e-11       9.566479108798e-16 
   35       3.857875527564e-08       4.321867583246e-16       1.276460137933e-12       1.366331837608e-21       5.418908645447e-14       2.321448684335e-11       1.196665360199e-15 
   36       3.736368917750e-08       4.576133300834e-16       1.290518228440e-12       1.514301105311e-21       4.730493746798e-14       2.078865556325e-11       1.370156952957e-15 
   37       3.619242357072e-08       4.658564251653e-16       1.321219139378e-12       1.649704471839e-21       4.173271326997e-14       1.890751908575e-11       1.481524656993e-15 
   38       3.506667372317e-08       4.577662699981e-16       1.366224866409e-12       1.769578709968e-21       3.735929252296e-14       1.751299557198e-11       1.534946646748e-15 
   39       3.398718710363e-08       4.394293472181e-16       1.423654584201e-12       1.871273006002e-21       3.389795822624e-14       1.646011094378e-11       1.536425835372e-15 
   40       3.294943696066e-08       4.185640212393e-16       1.490869470953e-12       1.952115017618e-21       3.096142775068e-14       1.555777518184e-11       1.494715775548e-15 
   41       3.194629450980e-08       4.030483317231e-16       1.565033056399e-12       2.009844123865e-21       2.815667871037e-14       1.461620725983e-11       1.420348163473e-15 
   42       3.097828803088e-08       3.956667253255e-16       1.645144496122e-12       2.044055224095e-21       2.542389188205e-14       1.361555440828e-11       1.321847730118e-15 
   43       3.004584581876e-08       3.978354310982e-16       1.730574182659e-12       2.055242851445e-21       2.279570509998e-14       1.258671901246e-11       1.208626062684e-15 
   44       2.914613994259e-08       4.110349471481e-16       1.820492559737e-12       2.044458097333e-21       2.030450314474e-14       1.156567944787e-11       1.092169818348e-15 
   45       2.827488514591e-08       4.363798956712e-16       1.914042860344e-12       2.013457720702e-21       1.798251337609e-14       1.058871228139e-11       9.841628685283e-16 
   46       2.743303644408e-08       4.731769874686e-16       2.010951205216e-12       1.965110431773e-21       1.586256857152e-14       9.675760503977e-12       8.898971797251e-16 
   47       2.662161772876e-08       5.199346834616e-16       2.111077026179e-12       1.903180070863e-21       1.397725320030e-14       8.842522596947e-12       8.130985561530e-16 
   48       2.583966078386e-08       5.747303596855e-16       2.214241190030e-12       1.832272079302e-21       1.235847333757e-14       8.105014960315e-12       7.577609813131e-16 
   49       2.508404510864e-08       6.351848355192e-16       2.320223828314e-12       1.757879759970e-21       1.103728546955e-14       7.479534729028e-12       7.281528811419e-16 
   50       2.435088530166e-08       6.991752420220e-16       2.428803779827e-12       1.685975504447e-21       1.003074652161e-14       6.976575232461e-12       7.270988071907e-16 
   51       2.364050878598e-08       7.672608393172e-16       2.539894574639e-12       1.621546342718e-21       9.298653123118e-15       6.580711586255e-12       7.502600942755e-16 
   52       2.295355235557e-08       8.408716303996e-16       2.653441610029e-12       1.569740849162e-21       8.774763784398e-15       6.265190997344e-12       7.903125782345e-16 
   53       2.228944742743e-08       9.216366246141e-16       2.769383556891e-12       1.536313691132e-21       8.377987949397e-15       5.997188795969e-12       8.384623737791e-16 
   54       2.164633269111e-08       1.011393111302e-15       2.887652147754e-12       1.527650476154e-21       8.011604034931e-15       5.737486670430e-12       8.843709809381e-16 
   55       2.102192731837e-08       1.111821901461e-15       3.008179441500e-12       1.549792268273e-21       7.586063325212e-15       5.450153630686e-12       9.185080707712e-16 
   56       2.041660472902e-08       1.223225696112e-15       3.130922216516e-12       1.605168437348e-21       7.095826916605e-15       5.135142314462e-12       9.400658635906e-16 
   57       1.983092941326e-08       1.345463481935e-15       3.255843266031e-12       1.695095701203e-21       6.560247053854e-15       4.803226706239e-12       9.508796702511e-16 
   58       1.926471443294e-08       1.478292790526e-15       3.382904529933e-12       1.820693527116e-21       6.001787631975e-15       4.466775345198e-12       9.531917334791e-16 
   59       1.871697149555e-08       1.621364399379e-15       3.512067174090e-12       1.982870005087e-21       5.446161164946e-15       4.139819276670e-12       9.496709192229e-16 
   60       1.818586102809e-08       1.774217032851e-15       3.643291669677e-12       2.182307721113e-21       4.922465754404e-15       3.838120003588e-12       9.434324080039e-16 
   61       1.766938863881e-08       1.936605887277e-15       3.776545372052e-12       2.418794602493e-21       4.456980071606e-15       3.575511565247e-12       9.373655820359e-16 
   62       1.716779012866e-08       2.109586364787e-15       3.911827065854e-12       2.689072896597e-21       4.052610893997e-15       3.351813592618e-12       9.318968470339e-16 
   63       1.668159566288e-08       2.294665299012e-15       4.049148095149e-12       2.988480106860e-21       3.705054406322e-15       3.162313442607e-12       9.267573090848e-16 
   64       1.621090489861e-08       2.493493784408e-15       4.188525661025e-12       3.311527196994e-21       3.408668122946e-15       3.001203394511e-12       9.216280531137e-16 
   65       1.575536074121e-08       2.707872469215e-15       4.329983138868e-12       3.651863680721e-21       3.156406630104e-15       2.861530382340e-12       9.161378838101e-16 
   66       1.531412310038e-08       2.939756848418e-15       4.473550395637e-12       4.002242711496e-21       2.939757328149e-15       2.735145727153e-12       9.098610665527e-16 
   67       1.488584264647e-08       3.191262556709e-15       4.619264107147e-12       4.354486172240e-21       2.748676173804e-15       2.612654869380e-12       9.023150683363e-16 
   68       1.446913130470e-08       3.464386207868e-15       4.767154556553e-12       4.700600636966e-21       2.573549237429e-15       2.485602108992e-12       8.931160147466e-16 
   69       1.406414310517e-08       3.760090396749e-15       4.917202214377e-12       5.036465869589e-21       2.411682552684e-15       2.353651245533e-12       8.824866886967e-16 
   70       1.367126798104e-08       4.079041951260e-15       5.069372890000e-12       5.358834431719e-21       2.262017887853e-15       2.218776306880e-12       8.708478802508e-16 
   71       1.329065007558e-08       4.421878035052e-15       5.223630444043e-12       5.664241561200e-21       2.123211059237e-15       2.083162048048e-12       8.586715208903e-16 
   72       1.292217420272e-08       4.789204165457e-15       5.379936759891e-12       5.948999695898e-21       1.993619484529e-15       1.949210844835e-12       8.464824580976e-16 
   73       1.256545230757e-08       5.181592231414e-15       5.538251715228e-12       6.209192997497e-21       1.871289736188e-15       1.819549587486e-12       8.348602299408e-16 
   74       1.221980992695e-08       5.599578511406e-15       5.698533153562e-12       6.440671875292e-21       1.753945094816e-15       1.697036574339e-12       8.244408396579e-16 
   75       1.188427264987e-08       6.043661691388e-15       5.860736855749e-12       6.639047509978e-21       1.638973102532e-15       1.584768405485e-12       8.159185302409e-16 
   76       1.155786782784e-08       6.514496219558e-15       6.024817372766e-12       6.801252469737e-21       1.524147362230e-15       1.485355245575e-12       8.098683524122e-16 
   77       1.124062315305e-08       7.013517458342e-15       6.190730762257e-12       6.930563214542e-21       1.409972406664e-15       1.398578797391e-12       8.061725916764e-16 
   78       1.093272642326e-08       7.542427460514e-15       6.358432301600e-12       7.032487775739e-21       1.297745801169e-15       1.323317788629e-12       8.044924855932e-16 
   79       1.063421948586e-08       8.103011736437e-15       6.527875660299e-12       7.113307121757e-21       1.188864399168e-15       1.258233736952e-12       8.044362820052e-16 
   80       1.034499116282e-08       8.697141277542e-15       6.699012889175e-12       7.180101795888e-21       1.084826951854e-15       1.201762840969e-12       8.055573388456e-16 
   81       1.006477017570e-08       9.326774579789e-15       6.871794409557e-12       7.240778554071e-21       9.872367178741e-16       1.152107871203e-12       8.073522239456e-16 
   82       9.793118070589e-09       9.993959667153e-15       7.046169002463e-12       7.304097002673e-21       8.978040730080e-16       1.107230061064e-12       8.092588148426e-16 
   83       9.529422143079e-09       1.070083611508e-14       7.222083797796e-12       7.379696236280e-21       8.183491198524e-16       1.064840997817e-12       8.106543985870e-16 
   84       9.273078213338e-09       1.144953010075e-14       7.399484191183e-12       7.476807558381e-21       7.503470088115e-16       1.022883536121e-12       8.109958379111e-16 
   85       9.024089263290e-09       1.224181513100e-14       7.578313602337e-12       7.600089097972e-21       6.934715790991e-16       9.810839038653e-13       8.102709303773e-16 
   86       8.782553530497e-09       1.307939851868e-14       7.758513656630e-12       7.753146289050e-21       6.468139464433e-16       9.396432314412e-13       8.086187390091e-16 
   87       8.548479654737e-09       1.396402357746e-14       7.940024242025e-12       7.939788879499e-21       6.093133245596e-16       8.987715148636e-13       8.061946590892e-16 
   88       8.321782793732e-09       1.489746984738e-14       8.122783497050e-12       8.164035486232e-21       5.797519493081e-16       8.586877256067e-13       8.031709056372e-16 
   89       8.102280738869e-09       1.588155332049e-14       8.306727798772e-12       8.430118150336e-21       5.567500028519e-16       8.196199204418e-13       7.997370008872e-16 
   90       7.889690030937e-09       1.691812666644e-14       8.491791750768e-12       8.742486892214e-21       5.387605378146e-16       7.818053512751e-13       7.961002617653e-16 
   91       7.683622075844e-09       1.800907945808e-14       8.677908171096e-12       9.105814266728e-21       5.240644014379e-16       7.454905749857e-13       7.924862873670e-16 
   92       7.483579260353e-09       1.915633839706e-14       8.865008080272e-12       9.524999918343e-21       5.107651597400e-16       7.109315632633e-13       7.891394464351e-16 
   93       7.289091093553e-09       2.036192475708e-14       9.053021241464e-12       1.000339198373e-20       4.971652119119e-16       6.783421741161e-13       7.862724196621e-16 
   94       7.100154490288e-09       2.162813610630e-14       9.241877900152e-12       1.053713541039e-20       4.829698663097e-16       6.477304627053e-13       7.839050868824e-16 
   95       6.916852832876e-09       2.295739246024e-14       9.431507285096e-12       1.111997809156e-20       4.682558154894e-16       6.190378401744e-13       7.820021970497e-16 
   96       6.739219909706e-09       2.435218249693e-14       9.621837075033e-12       1.174495862603e-20       4.531062363140e-16       5.921879274244e-13       7.805219453487e-16 
   97       6.567237953072e-09       2.581506456790e-14       9.812793394230e-12       1.240438639619e-20       4.376109466467e-16       5.670859561201e-13       7.794157613569e-16 
   98       6.400835677016e-09       2.734866770919e-14       1.000430080804e-11       1.308982164618e-20       4.218665620449e-16       5.436181696976e-13       7.786280972056e-16 
   99       6.239886315159e-09       2.895569265240e-14       1.019628231845e-11       1.379205555994e-20       4.059766524539e-16       5.216512243706e-13       7.780962157419e-16 
  100       6.084205658547e-09       3.063891283567e-14       1.038865935964e-11       1.450109033937e-20       3.900518989004e-16       5.010315901380e-13       7.777499786896e-16 
  101       5.933550093482e-09       3.240117541474e-14       1.058135179354e-11       1.520611928237e-20       3.742102501861e-16       4.815849517899e-13       7.775116348115e-16 
  102       5.787614639362e-09       3.424540227395e-14       1.077427790535e-11       1.589550686097e-20       3.585770795817e-16       4.631156099153e-13       7.772956080703e-16 
  103       5.646030986522e-09       3.617459103724e-14       1.096735439914e-11       1.655676879946e-20       3.432853415203e-16       4.454058819088e-13       7.770082857900e-16 
  104       5.508458183892e-09       3.819174788192e-14       1.116049635330e-11       1.717952769256e-20       3.284507338013e-16       4.282590885976e-13       7.765597488868e-16 
  105       5.374872880146e-09       4.029967346581e-14       1.135361708963e-11       1.776487747935e-20       3.140930255084e-16       4.116364175907e-13       7.759012234778e-16 
  106       5.245314814394e-09       4.250114983218e-14       1.154662827823e-11       1.831725272216e-20       3.002043442876e-16       3.955375175476e-13       7.749923170632e-16 
  107       5.119796734873e-09       4.479900628312e-14       1.173943997110e-11       1.884157865170e-20       2.867731052733e-16       3.799584449487e-13       7.737894485986e-16 
