# dimensionless total [l(l+1)/2pi] C_l's
# for l=2 to 3000, i.e. number of multipoles equal to 2999
#
# -> if you prefer output in CAMB/HealPix/LensPix units/order, set 'format' to 'camb' in input file
# -> if you don't want to see such a header, set 'headers' to 'no' in input file
# -> for CMB lensing (phi), these are C_l^phi-phi for the lensing potential.
#    Remember the conversion factors:
#    C_l^dd (deflection) = l(l+1) C_l^phi-phi
#    C_l^gg (shear/convergence) = 1/4 (l(l+1))^2 C_l^phi-phi
#
# 1:l     2:TT                     3:EE                     4:TE                     5:BB                     6:phiphi                 7:TPhi                   8:Ephi               
    2       2.309097141365e-09       1.169640473602e-15      -9.277241117820e-13       0.000000000000e+00       1.548891869945e-09       1.614582886950e-09      -4.910741979908e-13 
    3       2.273358464427e-09       1.806943113090e-15      -8.597745099866e-13       0.000000000000e+00       6.832091214398e-10       1.003558388684e-09      -2.376690512258e-13 
    4       2.235571498180e-09       2.282319943933e-15      -3.768603871553e-13       0.000000000000e+00       3.733302018562e-10       7.000503524210e-10       1.012241748314e-14 
    5       2.188775952109e-09       3.069343799905e-15       4.078438744516e-13       0.000000000000e+00       2.311302142951e-10       5.220131034900e-10       2.180637502148e-13 
    6       2.133171446170e-09       4.716582154044e-15       1.354039631458e-12       0.000000000000e+00       1.551943391726e-10       4.064146075115e-10       3.776080159891e-13 
    7       2.071024711315e-09       7.451143266321e-15       2.328181818795e-12       0.000000000000e+00       1.104510111269e-10       3.263465474069e-10       4.889561997860e-13 
    8       2.004532540250e-09       1.101783075545e-14       3.215365718834e-12       0.000000000000e+00       8.213739705970e-11       2.682704403676e-10       5.557190644033e-13 
    9       1.935435940056e-09       1.476810602882e-14       3.930627365063e-12       0.000000000000e+00       6.322068878676e-11       2.246731401560e-10       5.833982171072e-13 
   10       1.865425318225e-09       1.791011520357e-14       4.423496606305e-12       0.000000000000e+00       5.003111979639e-11       1.910605090784e-10       5.786512062673e-13 
   11       1.796016119813e-09       1.978939003229e-14       4.675989280084e-12       0.000000000000e+00       4.122792406338e-11       1.633393669258e-10       5.329722908836e-13 
   12       1.727941408720e-09       2.008570789042e-14       4.697538301645e-12       0.000000000000e+00       3.396864812124e-11       1.417542603683e-10       4.862551236265e-13 
   13       1.661622193285e-09       1.886924380543e-14       4.518387244073e-12       0.000000000000e+00       2.843940291035e-11       1.242420719272e-10       4.285647053217e-13 
   14       1.597651539279e-09       1.652350178516e-14       4.181754490683e-12       0.000000000000e+00       2.414081710120e-11       1.098585645595e-10       3.658237935794e-13 
   15       1.536246481717e-09       1.358923321583e-14       3.736752290040e-12       0.000000000000e+00       2.073661484762e-11       9.790157820275e-11       3.029545086058e-13 
   16       1.477461753734e-09       1.059899302526e-14       3.232375216440e-12       0.000000000000e+00       1.799755389263e-11       8.784829340030e-11       2.437226927266e-13 
   17       1.421289371488e-09       7.957534320075e-15       2.712803387566e-12       0.000000000000e+00       1.576292024628e-11       7.931213835012e-11       1.907253797387e-13 
   18       1.367667334680e-09       5.893958624936e-15       2.214742095221e-12       0.000000000000e+00       1.390916231754e-11       7.198008648652e-11       1.454316021347e-13 
   19       1.316972700810e-09       4.461544654704e-15       1.764004547610e-12       0.000000000000e+00       1.237639683985e-11       6.571026975914e-11       1.085697269538e-13 
   20       1.268485595193e-09       3.605974137542e-15       1.378797774567e-12       0.000000000000e+00       1.107618807393e-11       6.023426502722e-11       7.976494787210e-14 
   21       1.222468391139e-09       3.231876246407e-15       1.067471875368e-12       0.000000000000e+00       9.971462458545e-12       5.545694803149e-11       5.850246430910e-14 
   22       1.178795413558e-09       3.192926035547e-15       8.294477376916e-13       0.000000000000e+00       9.020942074341e-12       5.125505065264e-11       4.356357403923e-14 
   23       1.137541417942e-09       3.395992925563e-15       6.597966440698e-13       0.000000000000e+00       8.202081577443e-12       4.755166175261e-11       3.362721314355e-14 
   24       1.098369118076e-09       3.748838613999e-15       5.474304870614e-13       0.000000000000e+00       7.486902901496e-12       4.423871203245e-11       2.699547208713e-14 
   25       1.061310759841e-09       4.198368496872e-15       4.815833719235e-13       0.000000000000e+00       6.862102803879e-12       4.128164330053e-11       2.273477049639e-14 
   26       1.026181586130e-09       4.698694228037e-15       4.483929387431e-13       0.000000000000e+00       6.311884354802e-12       3.863658454898e-11       1.994380627484e-14 
   27       9.929889026449e-10       5.226011447875e-15       4.364142264465e-13       0.000000000000e+00       5.825633672152e-12       3.626265174931e-11       1.781650998203e-14 
   28       9.615855451863e-10       5.764684738772e-15       4.338019852883e-13       0.000000000000e+00       5.390740301992e-12       3.410386120385e-11       1.556096737047e-14 
   29       9.320855198232e-10       6.318551513107e-15       4.345388535760e-13       0.000000000000e+00       5.003143215766e-12       3.214802175580e-11       1.300856357432e-14 
   30       9.044143688097e-10       6.899686377639e-15       4.331919765625e-13       0.000000000000e+00       4.657153878086e-12       3.037708677451e-11       1.017695154096e-14 
   31       8.782667882247e-10       7.522715129770e-15       4.240917821230e-13       0.000000000000e+00       4.343781747667e-12       2.875693913568e-11       7.109159475270e-15 
   32       8.536654257255e-10       8.200888251130e-15       4.062538678456e-13       0.000000000000e+00       4.060425284015e-12       2.727733744780e-11       3.945959293272e-15 
   33       8.305597633740e-10       8.948876708116e-15       3.802936631145e-13       0.000000000000e+00       3.804172323087e-12       2.592369583452e-11       8.841568278006e-16 
   34       8.087542969625e-10       9.780719006632e-15       3.472288232786e-13       0.000000000000e+00       3.570333310003e-12       2.467258641908e-11      -1.865653630907e-15 
   35       7.882529232642e-10       1.069857163087e-14       3.086309138971e-13       0.000000000000e+00       3.357118012891e-12       2.351763395229e-11      -4.169879864674e-15 
   36       7.690030418307e-10       1.169990654662e-14       2.665823105025e-13       0.000000000000e+00       3.162246458000e-12       2.245088693709e-11      -5.911843109593e-15 
   37       7.508620915403e-10       1.278089678041e-14       2.232579115275e-13       0.000000000000e+00       2.982528294714e-12       2.145939661215e-11      -7.006634754902e-15 
   38       7.338497674189e-10       1.393837761754e-14       1.795113681565e-13       0.000000000000e+00       2.817231271118e-12       2.053984655447e-11      -7.534084499419e-15 
   39       7.179585470997e-10       1.516833629057e-14       1.358399021951e-13       0.000000000000e+00       2.665629514679e-12       1.968769534654e-11      -7.653393140202e-15 
   40       7.030734417468e-10       1.646526012838e-14       9.276092907396e-14       0.000000000000e+00       2.525991073837e-12       1.889262184188e-11      -7.571756948490e-15 
   41       6.890290528300e-10       1.782320514383e-14       5.064055751404e-14       0.000000000000e+00       2.396132171041e-12       1.814210445050e-11      -7.500798016144e-15 
   42       6.758269906551e-10       1.923965779103e-14       9.115752355403e-15       0.000000000000e+00       2.275504731049e-12       1.743475823631e-11      -7.500885214493e-15 
   43       6.634724921635e-10       2.071276396258e-14      -3.251860070616e-14       0.000000000000e+00       2.163642939276e-12       1.677050076742e-11      -7.591674092511e-15 
   44       6.519082843459e-10       2.224025180391e-14      -7.516903872719e-14       0.000000000000e+00       2.059539599715e-12       1.614663524018e-11      -7.794662073486e-15 
   45       6.410477164562e-10       2.382030950183e-14      -1.197576253429e-13       0.000000000000e+00       1.961975595603e-12       1.555909242768e-11      -8.123194681300e-15 
   46       6.308985582481e-10       2.545457444821e-14      -1.665667219326e-13       0.000000000000e+00       1.870725564956e-12       1.500711298467e-11      -8.548778335902e-15 
   47       6.214671246289e-10       2.714600677913e-14      -2.157208990754e-13       0.000000000000e+00       1.785640605941e-12       1.448959415581e-11      -9.024799668782e-15 
   48       6.127199684027e-10       2.889810352469e-14      -2.673708467921e-13       0.000000000000e+00       1.706287331969e-12       1.400362092682e-11      -9.495200773277e-15 
   49       6.045807535130e-10       3.071493202078e-14      -3.216951729341e-13       0.000000000000e+00       1.631926918286e-12       1.354433211277e-11      -9.893960859484e-15 
   50       5.969588491074e-10       3.259996569968e-14      -3.788497447659e-13       0.000000000000e+00       1.561729085061e-12       1.310635751498e-11      -1.016044941713e-14 
   51       5.898515159087e-10       3.455214139967e-14      -4.387953307540e-13       0.000000000000e+00       1.495531133141e-12       1.268889995694e-11      -1.029160127684e-14 
   52       5.832640523870e-10       3.656878961098e-14      -5.014262827159e-13       0.000000000000e+00       1.433248720721e-12       1.229180123508e-11      -1.030300788822e-14 
   53       5.771789029545e-10       3.864671615834e-14      -5.666182493437e-13       0.000000000000e+00       1.374649271402e-12       1.191403306000e-11      -1.021450673723e-14 
   54       5.715540239523e-10       4.078217925411e-14      -6.342275060376e-13       0.000000000000e+00       1.319342076624e-12       1.155363707745e-11      -1.005040989561e-14 
   55       5.663396963391e-10       4.297115693671e-14      -7.041309060563e-13       0.000000000000e+00       1.266892871943e-12       1.120838847811e-11      -9.836647507623e-15 
   56       5.615375980951e-10       4.521027975534e-14      -7.763588914108e-13       0.000000000000e+00       1.217223571616e-12       1.087811728344e-11      -9.590843678701e-15 
   57       5.571535445703e-10       4.749608959091e-14      -8.509943508831e-13       0.000000000000e+00       1.170294500292e-12       1.056285865912e-11      -9.330175546735e-15 
   58       5.531794321156e-10       4.982475819087e-14      -9.281357863364e-13       0.000000000000e+00       1.125983681380e-12       1.026214875396e-11      -9.074348338574e-15 
   59       5.495923227728e-10       5.219207553606e-14      -1.007898225197e-12       0.000000000000e+00       1.084081789103e-12       9.974992912720e-12      -8.845703722188e-15 
   60       5.463535289651e-10       5.459343820755e-14      -1.090414132939e-12       0.000000000000e+00       1.044287100556e-12       9.699833888784e-12      -8.669328158840e-15 
   61       5.434216286679e-10       5.702454736045e-14      -1.175785039574e-12       0.000000000000e+00       1.006287621468e-12       9.435020941466e-12      -8.566396371735e-15 
   62       5.407969954403e-10       5.948371203800e-14      -1.263921666707e-12       0.000000000000e+00       9.700404245933e-13       9.180412081891e-12      -8.532210651991e-15 
   63       5.384856848914e-10       6.197004457072e-14      -1.354669371183e-12       0.000000000000e+00       9.355463395075e-13       8.936076698053e-12      -8.553402078811e-15 
   64       5.364859222665e-10       6.448280725737e-14      -1.447853626078e-12       0.000000000000e+00       9.027660749270e-13       8.701810825962e-12      -8.614156243837e-15 
   65       5.347876291408e-10       6.702142324716e-14      -1.543279369373e-12       0.000000000000e+00       8.716179367240e-13       8.477121255064e-12      -8.696106958676e-15 
   66       5.333719501127e-10       6.958548742184e-14      -1.640730352624e-12       0.000000000000e+00       8.419755459399e-13       8.261209633674e-12      -8.778229962431e-15 
   67       5.322107794976e-10       7.217477727787e-14      -1.739968489645e-12       0.000000000000e+00       8.136655567990e-13       8.052956574396e-12      -8.836736629230e-15 
   68       5.312755646681e-10       7.478856295777e-14      -1.840769375861e-12       0.000000000000e+00       7.865135871859e-13       7.851243479054e-12      -8.850969688667e-15 
   69       5.305668454272e-10       7.742335067380e-14      -1.943038659793e-12       0.000000000000e+00       7.604979181605e-13       7.656029266032e-12      -8.822715210428e-15 
   70       5.300898773228e-10       8.007469949081e-14      -2.046718189776e-12       0.000000000000e+00       7.356229816452e-13       7.467464264966e-12      -8.760630767018e-15 
   71       5.298456527713e-10       8.273787480432e-14      -2.151752198459e-12       0.000000000000e+00       7.118728734044e-13       7.285564673980e-12      -8.674636016912e-15 
   72       5.298306650055e-10       8.540784129807e-14      -2.258087576566e-12       0.000000000000e+00       6.892103041136e-13       7.110205302439e-12      -8.575959916254e-15 
   73       5.300366720224e-10       8.807925590158e-14      -2.365674146652e-12       0.000000000000e+00       6.675755504280e-13       6.941112313704e-12      -8.477187930548e-15 
   74       5.304504605318e-10       9.074646074776e-14      -2.474464936857e-12       0.000000000000e+00       6.468854060516e-13       6.777855967882e-12      -8.392309246355e-15 
   75       5.310536099034e-10       9.340347613044e-14      -2.584416454664e-12       0.000000000000e+00       6.270321328058e-13       6.619843364581e-12      -8.336763982989e-15 
   76       5.318277626057e-10       9.604458292938e-14      -2.695468813806e-12       0.000000000000e+00       6.079101362347e-13       6.466483660165e-12      -8.323463039396e-15 
   77       5.327720668846e-10       9.866620806863e-14      -2.807481326027e-12       0.000000000000e+00       5.895039270256e-13       6.317734544441e-12      -8.349905345126e-15 
   78       5.338885007604e-10       1.012653716833e-13      -2.920285606957e-12       0.000000000000e+00       5.718143686040e-13       6.173642694664e-12      -8.408786237520e-15 
   79       5.351765265695e-10       1.038391331175e-13      -3.033704543893e-12       0.000000000000e+00       5.548319029420e-13       6.034176481293e-12      -8.491781616493e-15 
   80       5.366329678282e-10       1.063845959692e-13      -3.147552156423e-12       0.000000000000e+00       5.385360701404e-13       5.899222247462e-12      -8.589512571852e-15 
   81       5.382518860950e-10       1.088989131357e-13      -3.261633457060e-12       0.000000000000e+00       5.228950280123e-13       5.768580588475e-12      -8.691510010608e-15 
   82       5.400244578339e-10       1.113792918582e-13      -3.375744311865e-12       0.000000000000e+00       5.078650716654e-13       5.641962631277e-12      -8.786179284302e-15 
   83       5.419388512776e-10       1.138229987675e-13      -3.489671301081e-12       0.000000000000e+00       4.933901530858e-13       5.518986313945e-12      -8.860764816316e-15 
   84       5.439833959259e-10       1.162272005434e-13      -3.603210500478e-12       0.000000000000e+00       4.794155713541e-13       5.399280141540e-12      -8.904309385606e-15 
   85       5.461569644861e-10       1.185884444939e-13      -3.716227708071e-12       0.000000000000e+00       4.659327032986e-13       5.282822366414e-12      -8.917173134014e-15 
   86       5.484600942751e-10       1.209031007167e-13      -3.828607992610e-12       0.000000000000e+00       4.529408418942e-13       5.169651476865e-12      -8.903035091804e-15 
   87       5.508917808104e-10       1.231675210772e-13      -3.940237836569e-12       0.000000000000e+00       4.404334462573e-13       5.059761834179e-12      -8.866053565092e-15 
   88       5.534494100115e-10       1.253780414900e-13      -4.051005314779e-12       0.000000000000e+00       4.283978993909e-13       4.953101758433e-12      -8.810881093529e-15 
   89       5.561286904012e-10       1.275309842021e-13      -4.160800273043e-12       0.000000000000e+00       4.168152659290e-13       4.849571614309e-12      -8.742679407972e-15 
   90       5.589235853074e-10       1.296226600747e-13      -4.269514506766e-12       0.000000000000e+00       4.056600498821e-13       4.749021896899e-12      -8.667134388165e-15 
   91       5.618262450640e-10       1.316493708655e-13      -4.377041939580e-12       0.000000000000e+00       3.948999523815e-13       4.651251317511e-12      -8.590471020415e-15 
   92       5.648269392126e-10       1.336074115112e-13      -4.483278801964e-12       0.000000000000e+00       3.844956294248e-13       4.556004889482e-12      -8.519468355270e-15 
   93       5.679163767736e-10       1.354932065465e-13      -4.588114705332e-12       0.000000000000e+00       3.744100900407e-13       4.463042436862e-12      -8.459952651066e-15 
   94       5.710932135065e-10       1.373037378749e-13      -4.691403940672e-12       0.000000000000e+00       3.646390338638e-13       4.372360064629e-12      -8.411985071725e-15 
   95       5.743575536432e-10       1.390361858536e-13      -4.792990173392e-12       0.000000000000e+00       3.551846496586e-13       4.283998613450e-12      -8.373974505864e-15 
   96       5.777086278735e-10       1.406878049576e-13      -4.892715216164e-12       0.000000000000e+00       3.460462730017e-13       4.197975269901e-12      -8.344129039026e-15 
   97       5.811447583279e-10       1.422559279037e-13      -4.990419082570e-12       0.000000000000e+00       3.372202763587e-13       4.114282618956e-12      -8.320450021665e-15 
   98       5.846633235591e-10       1.437379697733e-13      -5.085940040750e-12       0.000000000000e+00       3.286999591623e-13       4.032887696482e-12      -8.300726137128e-15 
   99       5.882607235243e-10       1.451314321367e-13      -5.179114667051e-12       0.000000000000e+00       3.204754378887e-13       3.953731041728e-12      -8.282527469643e-15 
  100       5.919323445674e-10       1.464339071763e-13      -5.269777899674e-12       0.000000000000e+00       3.125335361359e-13       3.876725749815e-12      -8.263199572299e-15 
  101       5.956725244006e-10       1.476430818101e-13      -5.357763092321e-12       0.000000000000e+00       3.048576747002e-13       3.801756524230e-12      -8.239857535034e-15 
  102       5.994745170869e-10       1.487567418156e-13      -5.442902067845e-12       0.000000000000e+00       2.974277616542e-13       3.728678729316e-12      -8.209380052618e-15 
  103       6.033304580222e-10       1.497727759531e-13      -5.525025171896e-12       0.000000000000e+00       2.902200824238e-13       3.657317442766e-12      -8.168403492638e-15 
  104       6.072329243162e-10       1.506892767016e-13      -5.603968910698e-12       0.000000000000e+00       2.832127432986e-13       3.587511408662e-12      -8.114066667571e-15 
  105       6.111799314193e-10       1.515048490813e-13      -5.679599923885e-12       0.000000000000e+00       2.764030761823e-13       3.519253699408e-12      -8.046372507974e-15 
  106       6.151705493260e-10       1.522183514303e-13      -5.751794365132e-12       0.000000000000e+00       2.697923909882e-13       3.452568377209e-12      -7.966135843114e-15 
  107       6.192033501746e-10       1.528288076403e-13      -5.820430742553e-12       0.000000000000e+00       2.633805838528e-13       3.387466841691e-12      -7.874263475113e-15 
