# dimensionless total lensed [l(l+1)/2pi] C_l's
# for l=2 to 2500, i.e. number of multipoles equal to 2499
#
# -> if you prefer output in CAMB/HealPix/LensPix units/order, set 'format' to 'camb' in input file
# -> if you don't want to see such a header, set 'headers' to 'no' in input file
# -> for CMB lensing (phi), these are C_l^phi-phi for the lensing potential.
#    Remember the conversion factors:
#    C_l^dd (deflection) = l(l+1) C_l^phi-phi
#    C_l^gg (shear/convergence) = 1/4 (l(l+1))^2 C_l^phi-phi
#
# 1:l     2:TT                     3:EE                     4:TE                     5:BB                     6:phiphi                 7:TPhi                   8:Ephi               
    2       1.375969558537e-10       7.005913992479e-15       5.038119887111e-13       2.445071050042e-19       9.059628998439e-09       4.025153447775e-10      -2.471195023110e-12 
    3       1.318228837186e-10       1.205723805430e-14       6.210512568837e-13       4.892481676215e-19       5.664992207877e-09       2.939458040265e-10      -2.185601914457e-12 
    4       1.253530372983e-10       1.436806407159e-14       6.384885578086e-13       8.159254606341e-19       3.948496921115e-09       2.260554249322e-10      -1.762179872398e-12 
    5       1.200617587587e-10       1.360739255762e-14       5.978131503279e-13       1.224828806223e-18       2.948774712572e-09       1.804800839993e-10      -1.328188389074e-12 
    6       1.161153322940e-10       1.078649644864e-14       5.274334204254e-13       1.716302166902e-18       2.303442045794e-09       1.480636425480e-10      -9.280034844809e-13 
    7       1.133860901266e-10       7.357222703213e-15       4.468153318993e-13       2.290732497164e-18       1.856739691939e-09       1.239031943535e-10      -5.850610201218e-13 
    8       1.115737238958e-10       4.451570521903e-15       3.678274754545e-13       2.948537371499e-18       1.532603630185e-09       1.052695640788e-10      -3.103877514517e-13 
    9       1.105543143478e-10       2.572459027243e-15       2.975278287357e-13       3.690151869317e-18       1.289544221609e-09       9.060419266941e-11      -1.067408799561e-13 
   10       1.101443364109e-10       1.661401818256e-15       2.398210687863e-13       4.516015224541e-18       1.102352282066e-09       7.890154220580e-11       2.948344840517e-14 
   11       1.102123875580e-10       1.363955111668e-15       1.964852857752e-13       5.426557754458e-18       9.234582671777e-10       6.955556559847e-11       1.058016639983e-13 
   12       1.106506476196e-10       1.303197827154e-15       1.675464342761e-13       6.422188568722e-18       8.065965115241e-10       6.152097694956e-11       1.353877050502e-13 
   13       1.113667283093e-10       1.242953216997e-15       1.516446456966e-13       7.503284525565e-18       7.107172516078e-10       5.485486812568e-11       1.301513030060e-13 
   14       1.123162911451e-10       1.116786422678e-15       1.464134562611e-13       8.670180849838e-18       6.309768265739e-10       4.920147012993e-11       1.022317339562e-13 
   15       1.134450252147e-10       9.672057618464e-16       1.490467538621e-13       9.923163758474e-18       5.638878965215e-10       4.452197366261e-11       6.313650077430e-14 
   16       1.147335583521e-10       8.614630464899e-16       1.567642062473e-13       1.126246535618e-17       5.068704354292e-10       4.052697729801e-11       2.193642485169e-14 
   17       1.161393828157e-10       8.344612236740e-16       1.670178864969e-13       1.268826097099e-17       4.579764565236e-10       3.696746720656e-11      -1.476435594290e-14 
   18       1.176246444849e-10       8.744041524534e-16       1.776645219878e-13       1.420066781185e-17       4.155492151603e-10       3.382904905013e-11      -4.258183007875e-14 
   19       1.192172567782e-10       9.493543422329e-16       1.876414935913e-13       1.579975322846e-17       3.789180829709e-10       3.110869804087e-11      -5.982736257259e-14 
   20       1.209058505484e-10       1.019656311760e-15       1.961352671632e-13       1.748552638512e-17       3.466631905828e-10       2.871500241180e-11      -6.640696437799e-14 
   21       1.226702587013e-10       1.078202837439e-15       2.029817182529e-13       1.925796249570e-17       3.182755850842e-10       2.658953870369e-11      -6.378671031041e-14 
   22       1.244604382432e-10       1.132060186813e-15       2.083421721565e-13       2.111699293824e-17       2.930751648337e-10       2.465482341366e-11      -5.471072327461e-14 
   23       1.262971776828e-10       1.200876114201e-15       2.126707960569e-13       2.306253442730e-17       2.707137277350e-10       2.291178145815e-11      -4.180178639792e-14 
   24       1.281987276711e-10       1.308284119993e-15       2.165889333729e-13       2.509447907571e-17       2.506721080529e-10       2.136086752819e-11      -2.803784354953e-14 
   25       1.301481028448e-10       1.460538329962e-15       2.205611136135e-13       2.721272885341e-17       2.327136510805e-10       1.996678658455e-11      -1.559269846862e-14 
   26       1.321065845050e-10       1.656337151469e-15       2.249991478709e-13       2.941718335413e-17       2.165127373650e-10       1.867393317732e-11      -6.356249790032e-15 
   27       1.340876198269e-10       1.888571687572e-15       2.300827844119e-13       3.170777029008e-17       2.018748885679e-10       1.748360718873e-11      -9.298896593480e-16 
   28       1.361096877188e-10       2.148109461652e-15       2.358519752018e-13       3.408443777040e-17       1.885475806293e-10       1.640579613614e-11       6.752209716333e-16 
   29       1.381786439877e-10       2.433688566953e-15       2.420968246071e-13       3.654719066927e-17       1.764621800989e-10       1.543888876759e-11      -1.017260464512e-15 
   30       1.402824443398e-10       2.746260787511e-15       2.484410315183e-13       3.909606980976e-17       1.654879903318e-10       1.456713061688e-11      -5.062487092864e-15 
   31       1.423987839648e-10       3.086222924450e-15       2.544189574956e-13       4.173115229812e-17       1.554001510764e-10       1.376622859814e-11      -1.027535840646e-14 
   32       1.445324748085e-10       3.451960943167e-15       2.596383280488e-13       4.445257845788e-17       1.461465190601e-10       1.302862912737e-11      -1.573852095887e-14 
   33       1.466895294466e-10       3.840670099791e-15       2.636653741671e-13       4.726054314064e-17       1.376619154505e-10       1.234605675327e-11      -2.045073625556e-14 
   34       1.488697389217e-10       4.249660258055e-15       2.660636011109e-13       5.015528987003e-17       1.298278135379e-10       1.170648859289e-11      -2.341960202634e-14 
   35       1.510787418188e-10       4.679802033028e-15       2.666972135572e-13       5.313709723930e-17       1.226039859188e-10       1.110910206978e-11      -2.449625048564e-14 
   36       1.533185426775e-10       5.133304723246e-15       2.655337678775e-13       5.620629561657e-17       1.159321859128e-10       1.055376066951e-11      -2.383525448022e-14 
   37       1.555861470964e-10       5.612772151609e-15       2.625795666757e-13       5.936325283450e-17       1.097252651832e-10       1.003789814017e-11      -2.169550390583e-14 
   38       1.578827719257e-10       6.120955526537e-15       2.579248979449e-13       6.260829733024e-17       1.039671265124e-10       9.560566713108e-12      -1.848559650628e-14 
   39       1.602064592473e-10       6.660971930698e-15       2.517185560809e-13       6.594177512006e-17       9.863950560767e-11       9.119230394639e-12      -1.474729107769e-14 
   40       1.625487943893e-10       7.236407665903e-15       2.441598506021e-13       6.936407367826e-17       9.369157590686e-11       8.708352310430e-12      -1.115427706009e-14 
   41       1.648995274218e-10       7.850529488023e-15       2.354508992491e-13       7.287558536502e-17       8.905765083961e-11       8.321247707743e-12      -8.368356437501e-15 
   42       1.672637797012e-10       8.503540409813e-15       2.256271197115e-13       7.647657721557e-17       8.472404954172e-11       7.956985961709e-12      -6.531271341595e-15 
   43       1.696493655101e-10       9.194478942341e-15       2.146769552268e-13       8.016728308707e-17       8.067921728472e-11       7.615303037079e-12      -5.621740327413e-15 
   44       1.720617454476e-10       9.921932535026e-15       2.025877381223e-13       8.394793902173e-17       7.689365931157e-11       7.294575736667e-12      -5.591545104876e-15 
   45       1.745038735289e-10       1.068446152093e-14       1.893270661137e-13       8.781874578879e-17       7.333046945680e-11       6.992499866701e-12      -6.344598185664e-15 
   46       1.769763360582e-10       1.148208690418e-14       1.747810166793e-13       9.177974349043e-17       6.998403452236e-11       6.708629998271e-12      -7.671430182096e-15 
   47       1.794767835677e-10       1.231520057746e-14       1.587969379245e-13       9.583089922669e-17       6.685047196409e-11       6.442408790658e-12      -9.291690278954e-15 
   48       1.819995480160e-10       1.318415102244e-14       1.411988339273e-13       9.997213892572e-17       6.391595768049e-11       6.192378328923e-12      -1.086834056146e-14 
   49       1.845353732023e-10       1.408924180552e-14       1.217860022644e-13       1.042033450529e-16       6.115598664207e-11       5.956113803542e-12      -1.200455214425e-14 
   50       1.870751648791e-10       1.503074537550e-14       1.003804241857e-13       1.085243469821e-16       5.854275424720e-11       5.730973188892e-12      -1.234833323370e-14 
   51       1.896230665651e-10       1.600895236207e-14       7.698726092918e-14       1.129348943436e-16       5.607137776380e-11       5.516740039094e-12      -1.194709527586e-14 
   52       1.921864670181e-10       1.702413305852e-14       5.167556719784e-14       1.174346724813e-16       5.373951435393e-11       5.313583410406e-12      -1.098396454996e-14 
   53       1.947722122300e-10       1.807652252370e-14       2.453425578176e-14       1.220233065855e-16       5.153951367887e-11       5.121277301852e-12      -9.680381169811e-15 
   54       1.973865250038e-10       1.916631979778e-14      -4.326970672875e-15       1.267003590558e-16       4.945806068018e-11       4.939172734797e-12      -8.298064950779e-15 
   55       2.000343151494e-10       2.029365926130e-14      -3.480087566028e-14       1.314653756436e-16       4.748023682968e-11       4.766431220600e-12      -7.086717952957e-15 
   56       2.027170936485e-10       2.145851817701e-14      -6.686135678368e-14       1.363180433393e-16       4.560370368985e-11       4.602857044558e-12      -6.107414682452e-15 
   57       2.054343994548e-10       2.266078480583e-14      -1.005026885321e-13       1.412580670905e-16       4.382741715741e-11       4.448222834346e-12      -5.368781595067e-15 
   58       2.081842615772e-10       2.390028242235e-14      -1.357170571174e-13       1.462851237398e-16       4.214733665945e-11       4.302008936322e-12      -4.877271415884e-15 
   59       2.109630949132e-10       2.517676744529e-14      -1.724945710856e-13       1.513988612894e-16       4.055624008271e-11       4.163385679051e-12      -4.637014850792e-15 
   60       2.137655960837e-10       2.648992756796e-14      -2.108232719279e-13       1.565988981656e-16       3.904353870283e-11       4.031195636836e-12      -4.649672298011e-15 
   61       2.165866042188e-10       2.783938326627e-14      -2.506944713315e-13       1.618848984716e-16       3.759821799892e-11       3.904257803355e-12      -4.907848281295e-15 
   62       2.194274070432e-10       2.922469694795e-14      -2.921201388577e-13       1.672568191508e-16       3.621885014319e-11       3.782400020961e-12      -5.373942860034e-15 
   63       2.222906718574e-10       3.064536254876e-14      -3.351194537062e-13       1.727147172492e-16       3.490551073868e-11       3.665627872178e-12      -5.996268446987e-15 
   64       2.251785644981e-10       3.210080060868e-14      -3.797139985357e-13       1.782586804637e-16       3.365676706213e-11       3.553815845248e-12      -6.714722644050e-15 
   65       2.280927075194e-10       3.359035650954e-14      -4.259279390847e-13       1.838888288175e-16       3.246959217522e-11       3.446699811620e-12      -7.460435703808e-15 
   66       2.310341383730e-10       3.511329871265e-14      -4.737882037937e-13       1.896053163352e-16       3.133927903575e-11       3.343869503445e-12      -8.155417991088e-15 
   67       2.340032675890e-10       3.666881699639e-14      -5.233246634266e-13       1.954083327182e-16       3.025935460893e-11       3.244760991068e-12      -8.712207444509e-15 
   68       2.370002686543e-10       3.825609296620e-14      -5.745612041189e-13       2.012981014167e-16       2.922330898568e-11       3.148824260126e-12      -9.055948275843e-15 
   69       2.400264328631e-10       3.987453211444e-14      -6.274864445577e-13       2.072748696451e-16       2.823038157582e-11       3.056082187760e-12      -9.196610083284e-15 
   70       2.430830151300e-10       4.152357583195e-14      -6.820773807494e-13       2.133389193442e-16       2.728079844257e-11       2.966671836346e-12      -9.170836151651e-15 
   71       2.461707963555e-10       4.320263338072e-14      -7.383079152745e-13       2.194905721595e-16       2.637402227041e-11       2.880676385695e-12      -9.021024165215e-15 
   72       2.492900526480e-10       4.491108197985e-14      -7.961488040040e-13       2.257301910252e-16       2.550871289591e-11       2.798122088799e-12      -8.795547358197e-15 
   73       2.524405245447e-10       4.664826689159e-14      -8.555676028167e-13       2.320581817469e-16       2.468268783857e-11       2.718975227570e-12      -8.548975665265e-15 
   74       2.556213862338e-10       4.841350150736e-14      -9.165286143160e-13       2.384749945850e-16       2.389288283169e-11       2.643139068590e-12      -8.342296872040e-15 
   75       2.588312147752e-10       5.020606743380e-14      -9.789928345465e-13       2.449811258375e-16       2.313531235320e-11       2.570450818846e-12      -8.243137765586e-15 
   76       2.620686072537e-10       5.202509987386e-14      -1.042918362072e-12       2.515770298050e-16       2.240605926996e-11       2.500727675306e-12      -8.308514581569e-15 
   77       2.653342301995e-10       5.386921944983e-14      -1.108261829112e-12       2.582628326519e-16       2.170453936457e-11       2.433921397678e-12      -8.528964001890e-15 
   78       2.686290897072e-10       5.573683308586e-14      -1.174977135790e-12       2.650385690002e-16       2.103076316901e-11       2.369986522892e-12      -8.874578627403e-15 
   79       2.719538994501e-10       5.762624052721e-14      -1.243014967825e-12       2.719042666681e-16       2.038434159367e-11       2.308831767282e-12      -9.311438982684e-15 
   80       2.753090631879e-10       5.953563207419e-14      -1.312322752737e-12       2.788599464161e-16       1.976446756087e-11       2.250317989034e-12      -9.801476415606e-15 
   81       2.786946572748e-10       6.146308631607e-14      -1.382844616041e-12       2.859056216920e-16       1.916989763862e-11       2.194256150639e-12      -1.030233599691e-14 
   82       2.821104131668e-10       6.340656786493e-14      -1.454521337445e-12       2.930412983762e-16       1.859893367419e-11       2.140405281346e-12      -1.076723941981e-14 
   83       2.855556999304e-10       6.536392508963e-14      -1.527290307049e-12       3.002669745277e-16       1.804940442782e-11       2.088470439611e-12      -1.114484789950e-14 
   84       2.890298743745e-10       6.733307331277e-14      -1.601092481741e-12       3.075826470898e-16       1.751919356561e-11       2.038172444300e-12      -1.139084991700e-14 
   85       2.925334364571e-10       6.931258426010e-14      -1.675894675359e-12       3.149883338445e-16       1.700796443957e-11       1.989474813612e-12      -1.150523195485e-14 
   86       2.960670342402e-10       7.130119062893e-14      -1.751670900640e-12       3.224840546479e-16       1.651568889525e-11       1.942390887000e-12      -1.150096382087e-14 
   87       2.996311021489e-10       7.329761015167e-14      -1.828395770328e-12       3.300698246576e-16       1.604211728655e-11       1.896914582320e-12      -1.139288223285e-14 
   88       3.032258496572e-10       7.530054644677e-14      -1.906044571022e-12       3.377456541950e-16       1.558676929190e-11       1.853019564486e-12      -1.119775077434e-14 
   89       3.068512499750e-10       7.730868986967e-14      -1.984593337025e-12       3.455115486080e-16       1.514892473044e-11       1.810658414113e-12      -1.093431985043e-14 
   90       3.105070287343e-10       7.932071836372e-14      -2.064018924193e-12       3.533675081331e-16       1.472761437813e-11       1.769761796173e-12      -1.062338664353e-14 
   91       3.141926526755e-10       8.133529831109e-14      -2.144299083782e-12       3.613135277580e-16       1.432161078396e-11       1.730237628636e-12      -1.028785506914e-14 
   92       3.179073183341e-10       8.335108538373e-14      -2.225412536297e-12       3.693495970840e-16       1.392941908608e-11       1.691970251129e-12      -9.952795731637e-15 
   93       3.216502387177e-10       8.536666380525e-14      -2.307331467900e-12       3.774758082550e-16       1.354963186399e-11       1.654848888274e-12      -9.640510507141e-15 
   94       3.254215772330e-10       8.738035183862e-14      -2.389997568282e-12       3.856926986115e-16       1.318207469269e-11       1.618859742385e-12      -9.354746961454e-15 
   95       3.292216339574e-10       8.939036848097e-14      -2.473342508655e-12       3.940009595573e-16       1.282681670163e-11       1.584006278886e-12      -9.094209584618e-15 
   96       3.330505530376e-10       9.139489245145e-14      -2.557295168314e-12       4.024013344126e-16       1.248381775953e-11       1.550280742265e-12      -8.857335122749e-15 
   97       3.369083154662e-10       9.339206219670e-14      -2.641781604474e-12       4.108946197597e-16       1.215292428758e-11       1.517663726851e-12      -8.642283963153e-15 
   98       3.407947318585e-10       9.537997589637e-14      -2.726725022103e-12       4.194816667890e-16       1.183386507269e-11       1.486123747587e-12      -8.446931519437e-15 
   99       3.447094352300e-10       9.735669146866e-14      -2.812045743754e-12       4.281633826449e-16       1.152624708066e-11       1.455616810797e-12      -8.268859616633e-15 
  100       3.486518737726e-10       9.932022657579e-14      -2.897661179403e-12       4.369407317714e-16       1.122955126948e-11       1.426085984966e-12      -8.105347876306e-15 
  101       3.526213036319e-10       1.012685586295e-13      -2.983485796279e-12       4.458147372581e-16       1.094312840249e-11       1.397460971509e-12      -7.953365101676e-15 
  102       3.566167816841e-10       1.031996247967e-13      -3.069431088701e-12       4.547864821862e-16       1.066619486161e-11       1.369657675545e-12      -7.809560662731e-15 
  103       3.606371583128e-10       1.051113220047e-13      -3.155405547911e-12       4.638571109738e-16       1.039782846058e-11       1.342577776668e-12      -7.670255881342e-15 
  104       3.646813342771e-10       1.070015933868e-13      -3.241320787997e-12       4.730277189765e-16       1.013717762939e-11       1.316131915773e-12      -7.532227606765e-15 
  105       3.687490863933e-10       1.088687009056e-13      -3.327110931088e-12       4.822990014022e-16       9.884130167362e-12       1.290313747215e-12      -7.395198047356e-15 
  106       3.728403404438e-10       1.107109897387e-13      -3.412715796768e-12       4.916715592580e-16       9.638727444054e-12       1.265135136380e-12      -7.259666783981e-15 
  107       3.769549127776e-10       1.125268060715e-13      -3.498075016863e-12       5.011460069772e-16       9.400957275380e-12       1.240603269264e-12      -7.126148703730e-15 
