# dimensionless total lensed [l(l+1)/2pi] C_l's
# for l=2 to 2500, i.e. number of multipoles equal to 2499
#
# -> if you prefer output in CAMB/HealPix/LensPix units/order, set 'format' to 'camb' in input file
# -> if you don't want to see such a header, set 'headers' to 'no' in input file
# -> for CMB lensing (phi), these are C_l^phi-phi for the lensing potential.
#    Remember the conversion factors:
#    C_l^dd (deflection) = l(l+1) C_l^phi-phi
#    C_l^gg (shear/convergence) = 1/4 (l(l+1))^2 C_l^phi-phi
#
# 1:l     2:TT                     3:EE                     4:TE                     5:BB                     6:phiphi                 7:TPhi                   8:Ephi               
    2       5.659008834877e-10       2.230837867114e-15       1.051111691419e-12       4.466468862847e-20       1.568136508243e-09       7.626048083561e-10       1.219536266689e-12 
    3       5.300689041984e-10       8.320406928376e-16       5.704695222910e-13       9.012320626243e-20       1.051687520836e-09       6.007403588230e-10       4.744478894928e-13 
    4       4.526780853183e-10       9.760999262304e-16       3.519174311297e-13       1.519218591221e-19       7.383689371277e-10       4.493243898620e-10       6.115884044907e-14 
    5       3.934564009402e-10       1.883682647709e-15       2.992071928931e-13       2.309891614351e-19       5.441270427907e-10       3.424444110777e-10      -9.064260681111e-14 
    6       3.535844903149e-10       3.425416933045e-15       2.982164934665e-13       3.283797469210e-19       4.158737683139e-10       2.674538066001e-10      -1.466941614336e-13 
    7       3.285502923525e-10       5.679227055387e-15       3.006512307781e-13       4.452118843111e-19       3.265630273840e-10       2.134305591070e-10      -1.658541940118e-13 
    8       3.138556053442e-10       8.751591053427e-15       2.811088877777e-13       5.826001744270e-19       2.618406877544e-10       1.734672594162e-10      -1.704691540675e-13 
    9       3.066847245994e-10       1.273663846524e-14       2.284554798586e-13       7.415869961581e-19       2.134768922798e-10       1.431946556478e-10      -1.694641657484e-13 
   10       3.053151563017e-10       1.770119046837e-14       1.359208375818e-13       9.230763862397e-19       1.764462522456e-10       1.197789101967e-10      -1.663142109168e-13 
   11       3.078052831922e-10       2.367945010339e-14       3.582610565027e-16       1.127773976380e-18       1.484894172442e-10       1.042903001542e-10      -1.622279438093e-13 
   12       3.134305890259e-10       3.067219067092e-14      -1.784935843376e-13       1.356136372035e-18       1.252350707351e-10       8.946745067739e-11      -1.518992685340e-13 
   13       3.219238392261e-10       3.864914933211e-14      -4.022344872506e-13       1.608332949190e-18       1.066295111784e-10       7.685752000316e-11      -1.593440293442e-13 
   14       3.324721588922e-10       4.754348706451e-14      -6.707188272787e-13       1.884222485802e-18       9.144236661210e-11       6.730433724139e-11      -1.427854569925e-13 
   15       3.446967858318e-10       5.725049800056e-14      -9.804291829820e-13       2.183346357240e-18       7.894530750883e-11       5.864575603700e-11      -1.514666540897e-13 
   16       3.585274152433e-10       6.763455194583e-14      -1.327756648909e-12       2.504939240161e-18       6.858864264338e-11       5.198451818756e-11      -1.399729895826e-13 
   17       3.738308215140e-10       7.853280417717e-14      -1.709250974553e-12       2.847957421860e-18       5.988941140233e-11       4.598894683233e-11      -1.420074139981e-13 
   18       3.903165835757e-10       8.975590621360e-14      -2.119684227674e-12       3.211114590186e-18       5.253271832893e-11       4.094059674935e-11      -1.405872649121e-13 
   19       4.079121273554e-10       1.010955163012e-13      -2.552622910873e-12       3.592988924110e-18       4.635299973838e-11       3.684692586562e-11      -1.322102414112e-13 
   20       4.264786792883e-10       1.123233193216e-13      -3.000793339679e-12       3.991995369713e-18       4.104469583548e-11       3.324446696457e-11      -1.261469051405e-13 
   21       4.459648636301e-10       1.232085533308e-13      -3.456915515429e-12       4.406598527020e-18       3.648980007165e-11       3.006287467624e-11      -1.223800741422e-13 
   22       4.662613228324e-10       1.335150089599e-13      -3.913314843723e-12       4.835272824182e-18       3.255111399384e-11       2.730433798401e-11      -1.178182724571e-13 
   23       4.872752864743e-10       1.430167618792e-13      -4.361654025828e-12       5.276717664687e-18       2.914971052567e-11       2.491712530789e-11      -1.124608357133e-13 
   24       5.088611422505e-10       1.514961043555e-13      -4.793165258417e-12       5.729817978761e-18       2.617967216621e-11       2.280231481971e-11      -1.072385902486e-13 
   25       5.309179381888e-10       1.587592884146e-13      -5.199129886091e-12       6.193848438813e-18       2.358841618080e-11       2.092973469198e-11      -1.022447717622e-13 
   26       5.533152415506e-10       1.646348651694e-13      -5.570835305797e-12       6.668432483655e-18       2.131184685641e-11       1.926778648705e-11      -9.719093499711e-14 
   27       5.759301326355e-10       1.689879087972e-13      -5.899881920592e-12       7.153690154383e-18       1.930883957842e-11       1.777596826795e-11      -9.152737340564e-14 
   28       5.986141225924e-10       1.717197001157e-13      -6.178156745178e-12       7.650202623695e-18       1.753058458301e-11       1.640395972860e-11      -8.473998034994e-14 
   29       6.212517320787e-10       1.727817640116e-13      -6.398066441099e-12       8.159051628027e-18       1.596005546587e-11       1.515217162722e-11      -7.733627097530e-14 
   30       6.437034476953e-10       1.721728149309e-13      -6.552511594357e-12       8.681849347975e-18       1.457252004662e-11       1.402832749038e-11      -7.028611354649e-14 
   31       6.657992304589e-10       1.699409395456e-13      -6.634982242439e-12       9.220692389132e-18       1.332959464655e-11       1.302966393848e-11      -6.451302302684e-14 
   32       6.874048517440e-10       1.661907442214e-13      -6.639824947494e-12       9.777905591577e-18       1.221892560065e-11       1.214528061367e-11      -5.990309988234e-14 
   33       7.083746067650e-10       1.610866739590e-13      -6.562246984061e-12       1.035626682559e-17       1.122677965908e-11       1.135249666910e-11      -5.590947262136e-14 
   34       7.285445306894e-10       1.548533346056e-13      -6.398378167158e-12       1.095893684577e-17       1.033226118901e-11       1.062239024688e-11      -5.192496552116e-14 
   35       7.477786470829e-10       1.477668266016e-13      -6.145366266888e-12       1.158885956582e-17       9.527188535091e-12       9.945544409626e-12      -4.774259061433e-14 
   36       7.659356212361e-10       1.401678283242e-13      -5.801490316026e-12       1.224919100425e-17       8.801793503232e-12       9.314122138526e-12      -4.324613220222e-14 
   37       7.828668994695e-10       1.324560202089e-13      -5.366161540611e-12       1.294315112861e-17       8.142651748423e-12       8.718098569352e-12      -3.834244068508e-14 
   38       7.984575740956e-10       1.250483744208e-13      -4.839658553210e-12       1.367290956347e-17       7.545824266788e-12       8.157350988502e-12      -3.315412906564e-14 
   39       8.125974520042e-10       1.184132026437e-13      -4.223471834926e-12       1.444033270000e-17       7.007294036422e-12       7.633030931754e-12      -2.789143532485e-14 
   40       8.251693830119e-10       1.130854698409e-13      -3.520497547982e-12       1.524727050440e-17       6.519017282047e-12       7.144059558135e-12      -2.280342303781e-14 
   41       8.360588642839e-10       1.096460170153e-13      -2.734891870930e-12       1.609516787951e-17       6.071255853783e-12       6.687954282235e-12      -1.811905979073e-14 
   42       8.451879786507e-10       1.086433041093e-13      -1.871345416623e-12       1.698376883587e-17       5.661295651817e-12       6.264135820942e-12      -1.384219109558e-14 
   43       8.524915487902e-10       1.106516466246e-13      -9.357347423046e-13       1.791197490968e-17       5.287000519333e-12       5.871345159838e-12      -9.893459252944e-15 
   44       8.579080478249e-10       1.162945956514e-13       6.457781024201e-14       1.887815344778e-17       4.944238723045e-12       5.506564677606e-12      -6.163622399941e-15 
   45       8.613852579570e-10       1.262090024687e-13       1.121136993709e-12       1.987997341951e-17       4.628092588596e-12       5.165975682927e-12      -2.544070847953e-15 
   46       8.628989442042e-10       1.409206790104e-13       2.225901536487e-12       2.091393821005e-17       4.337278257881e-12       4.848498379212e-12       9.659310140872e-16 
   47       8.624399940090e-10       1.609342516157e-13       3.370051921744e-12       2.197565259360e-17       4.070787681712e-12       4.553074896900e-12       4.337900238842e-15 
   48       8.600098207438e-10       1.867668828683e-13       4.543505498509e-12       2.305989730591e-17       3.826568868742e-12       4.277592029747e-12       7.544074196770e-15 
   49       8.556208173731e-10       2.189476905992e-13       5.734863851194e-12       2.416058603865e-17       3.601451735426e-12       4.018806012418e-12       1.055757817051e-14 
   50       8.492988916479e-10       2.579727403893e-13       6.932045960726e-12       2.527109112083e-17       3.391969523578e-12       3.773397619763e-12       1.336037276863e-14 
   51       8.410908304530e-10       3.041569685881e-13       8.124512402215e-12       2.638542455385e-17       3.197257934746e-12       3.541649612371e-12       1.596925052032e-14 
   52       8.310597186121e-10       3.577410611840e-13       9.301553905591e-12       2.749730321725e-17       3.016814760209e-12       3.324637465508e-12       1.841718545964e-14 
   53       8.192835705979e-10       4.189297590626e-13       1.045163845577e-11       2.859978315361e-17       2.849641845894e-12       3.123164782817e-12       2.074669108976e-14 
   54       8.058558821492e-10       4.878891863512e-13       1.156239093473e-11       2.968523391288e-17       2.694213086700e-12       2.937741265525e-12       2.301035408653e-14 
   55       7.908820095936e-10       5.647109218240e-13       1.262139573450e-11       3.074623725406e-17       2.548869118803e-12       2.768366057076e-12       2.525399264914e-14 
   56       7.744659908244e-10       6.492998816821e-13       1.361888472177e-11       3.177860346520e-17       2.413189538245e-12       2.613865220565e-12       2.746000949707e-14 
   57       7.567214165722e-10       7.414539048345e-13       1.454568136287e-11       3.277905942418e-17       2.286905510442e-12       2.472351087818e-12       2.959090136513e-14 
   58       7.377756964470e-10       8.408906885572e-13       1.539244770797e-11       3.374440002507e-17       2.169487892472e-12       2.341373495022e-12       3.160526128411e-14 
   59       7.177704479983e-10       9.472438211120e-13       1.614969609697e-11       3.467149853644e-17       2.060131851988e-12       2.217890169160e-12       3.345763532253e-14 
   60       6.968618857753e-10       1.060058814367e-12       1.680780086532e-11       3.555731695967e-17       1.957741486142e-12       2.098237114446e-12       3.509837932834e-14 
   61       6.752123196102e-10       1.178790571662e-12       1.735786278698e-11       3.639972063376e-17       1.861198134896e-12       1.979065796089e-12       3.648567809305e-14 
   62       6.529615393395e-10       1.302804102634e-12       1.779450266012e-11       3.720011228323e-17       1.770270494767e-12       1.860467504923e-12       3.762507950410e-14 
   63       6.302496682393e-10       1.431366929385e-12       1.811371839769e-11       3.796141028225e-17       1.684882425575e-12       1.743500931743e-12       3.853862042773e-14 
   64       6.072255918677e-10       1.563643821230e-12       1.831212561729e-11       3.868733174613e-17       1.604841029217e-12       1.629288294918e-12       3.925368517356e-14 
   65       5.840470650274e-10       1.698692872860e-12       1.838699640372e-11       3.938242840776e-17       1.529830269992e-12       1.519016402567e-12       3.980324814073e-14 
   66       5.608808187280e-10       1.835461582495e-12       1.833629807160e-11       4.005212249402e-17       1.459404594927e-12       1.413937714746e-12       4.022611646415e-14 
   67       5.379026671484e-10       1.972782930048e-12       1.815873192790e-11       4.070274260222e-17       1.392982554108e-12       1.315371405629e-12       4.056717266066e-14 
   68       5.152842871409e-10       2.109453545778e-12       1.785410382293e-11       4.134085357453e-17       1.329985572767e-12       1.224423467494e-12       4.086709043852e-14 
   69       4.931502069458e-10       2.244495375346e-12       1.742443634598e-11       4.197100825020e-17       1.270301180245e-12       1.141078790510e-12       4.112851993060e-14 
   70       4.716122543668e-10       2.376940233231e-12       1.687315265996e-11       4.259760251604e-17       1.213902613959e-12       1.064926177302e-12       4.134345511812e-14 
   71       4.507818834113e-10       2.505750613774e-12       1.620481105393e-11       4.322555850179e-17       1.160709353004e-12       9.954170100252e-13       4.150312832077e-14 
   72       4.307699403965e-10       2.629817868835e-12       1.542515219125e-11       4.386034240031e-17       1.110584450808e-12       9.318591269149e-13       4.159798361436e-14 
   73       4.116864300570e-10       2.747960385457e-12       1.454114635788e-11       4.450798228764e-17       1.063331867774e-12       8.734106988384e-13       4.161765024843e-14 
   74       3.936402816507e-10       2.858921763520e-12       1.356104071050e-11       4.517508594315e-17       1.018693803932e-12       8.190741058447e-13       4.155091606390e-14 
   75       3.767391150659e-10       2.961368993409e-12       1.249440652477e-11       4.586885866965e-17       9.763480315880e-13       7.676898137153e-13       4.138570091074e-14 
   76       3.610794892036e-10       3.054036507742e-12       1.135154046521e-11       4.659560736805e-17       9.359805320949e-13       7.181947304705e-13       4.111165464064e-14 
   77       3.467161111782e-10       3.136192691597e-12       1.014143790286e-11       4.735589843801e-17       8.975245943816e-13       6.704652027781e-13       4.072855679216e-14 
   78       3.336865612428e-10       3.207255527092e-12       8.873534145712e-12       4.814854517033e-17       8.609606737252e-13       6.246173331394e-13       4.023940745031e-14 
   79       3.220198902770e-10       3.266655416252e-12       7.558351082437e-12       4.897203015318e-17       8.262438506119e-13       5.807554486887e-13       3.964796535270e-14 
   80       3.117361907252e-10       3.313836349939e-12       6.207531184238e-12       4.982449205162e-17       7.933027075572e-13       5.389714011194e-13       3.895877512623e-14 
   81       3.028461675347e-10       3.348257076776e-12       4.833871506782e-12       5.070371238717e-17       7.620382059264e-13       4.993438666103e-13       3.817719452376e-14 
   82       2.953507090937e-10       3.369392272071e-12       3.451357692094e-12       5.160710231732e-17       7.323225627549e-13       4.619376457520e-13       3.730942166078e-14 
   83       2.892404581694e-10       3.376733706749e-12       2.075197970453e-12       5.253168941509e-17       7.039981275686e-13       4.268029634731e-13       3.636252225210e-14 
   84       2.844956384843e-10       3.369918234383e-12       7.203005954200e-13       5.347443655444e-17       6.769121272168e-13       3.939679777176e-13       3.534416300634e-14 
   85       2.810864412613e-10       3.349133570284e-12      -6.036583438349e-13       5.443328826565e-17       6.510299787332e-13       3.634164120540e-13       3.426170136614e-14 
   86       2.789719163942e-10       3.314782237932e-12      -1.888061847972e-12       5.540627441098e-17       6.263387893929e-13       3.351049142354e-13       3.312299410164e-14 
   87       2.780993040019e-10       3.267363983567e-12      -3.123860413682e-12       5.639118597541e-17       6.028126462033e-13       3.089687155506e-13       3.193669970526e-14 
   88       2.784036096630e-10       3.207479076521e-12      -4.301564192570e-12       5.738556742781e-17       5.804120955483e-13       2.849208166113e-13       3.071230068982e-14 
   89       2.798071796506e-10       3.135831609537e-12      -5.411235150043e-12       5.838670908206e-17       5.590836228326e-13       2.628511731404e-13       2.946012588674e-14 
   90       2.822192761665e-10       3.053232799090e-12      -6.442479224200e-12       5.939163945828e-17       5.387591321251e-13       2.426258817591e-13       2.819137274413e-14 
   91       2.855356525760e-10       2.960604285715e-12      -7.384438484715e-12       6.039711764387e-17       5.193554258038e-13       2.240863657747e-13       2.691812962501e-14 
   92       2.896381286421e-10       2.858981434324e-12      -8.225783291725e-12       6.139962565478e-17       5.007736841992e-13       2.070485609683e-13       2.565339810544e-14 
   93       2.944084234488e-10       2.749486609644e-12      -8.956551626574e-12       6.239643129540e-17       4.829210381853e-13       1.913378824182e-13       2.440862671571e-14 
   94       2.997729566367e-10       2.633237236289e-12      -9.574000559281e-12       6.338897618800e-17       4.657801285984e-13       1.769019092706e-13       2.318583942908e-14 
   95       3.056640312799e-10       2.511429948541e-12      -1.007762443974e-11       6.437998555074e-17       4.493490951528e-13       1.637132212282e-13       2.198435901560e-14 
   96       3.120059505938e-10       2.385372232628e-12      -1.046740342102e-11       6.537245006278e-17       4.336202014757e-13       1.517348088741e-13       2.080317841047e-14 
   97       3.187147888823e-10       2.256485314906e-12      -1.074382097412e-11       6.636963292002e-17       4.185796180175e-13       1.409197506195e-13       1.964094885221e-14 
   98       3.256981624851e-10       2.126307050030e-12      -1.090788140262e-11       6.737507689078e-17       4.042072049620e-13       1.312108896520e-13       1.849596802077e-14 
   99       3.328550007257e-10       1.996494809132e-12      -1.096112735745e-11       6.839261137154e-17       3.904762951372e-13       1.225405108837e-13       1.736616817567e-14 
  100       3.400753168582e-10       1.868828367998e-12      -1.090565735154e-11       6.942635944266e-17       3.773534769252e-13       1.148300178991e-13       1.624910429415e-14 
  101       3.472399790152e-10       1.745212795243e-12      -1.074414327462e-11       7.048074492408e-17       3.647983771727e-13       1.079896099033e-13       1.514194220932e-14 
  102       3.542204811553e-10       1.627681340488e-12      -1.047984790783e-11       7.156049943103e-17       3.527634441015e-13       1.019179586699e-13       1.404144674828e-14 
  103       3.608787140103e-10       1.518398322534e-12      -1.011664243851e-11       7.267066942977e-17       3.411937302185e-13       9.650188548927e-14       1.294396987026e-14 
  104       3.670888326366e-10       1.419379165045e-12      -9.659322626732e-12       7.381487180678e-17       3.300384650226e-13       9.163754795548e-14       1.184654930815e-14 
  105       3.728067166506e-10       1.331601211447e-12      -9.114568222072e-12       7.498977700562e-17       3.192880211192e-13       8.729795563717e-14       1.075039906347e-14 
  106       3.780095097203e-10       1.255777619297e-12      -8.490146405823e-12       7.618989032681e-17       3.089415602179e-13       8.347401498664e-14       9.657870507514e-15 
  107       3.826743744570e-10       1.192629269151e-12      -7.794645258269e-12       7.740922482042e-17       2.989956027812e-13       8.015374830369e-14       8.571384320983e-15 
