# dimensionless total [l(l+1)/2pi] C_l's
# for l=2 to 3000, i.e. number of multipoles equal to 2999
#
# -> if you prefer output in CAMB/HealPix/LensPix units/order, set 'format' to 'camb' in input file
# -> if you don't want to see such a header, set 'headers' to 'no' in input file
# -> for CMB lensing (phi), these are C_l^phi-phi for the lensing potential.
#    Remember the conversion factors:
#    C_l^dd (deflection) = l(l+1) C_l^phi-phi
#    C_l^gg (shear/convergence) = 1/4 (l(l+1))^2 C_l^phi-phi
#
# 1:l     2:TT                     3:EE                     4:TE                     5:BB                     6:phiphi                 7:TPhi                   8:Ephi               
    2       4.883503190994e-08       4.209173226980e-16       1.324023675671e-12       0.000000000000e+00       9.395786014582e-10       6.591614771095e-09       2.533693730728e-13 
    3       4.107917950631e-08       1.144451195414e-15       2.930094914044e-12       0.000000000000e+00       3.331248814336e-10       3.562730322399e-09       3.204043447267e-13 
    4       3.525252682180e-08       2.681448271936e-15       5.219915620186e-12       0.000000000000e+00       1.552191627504e-10       2.232187545582e-09       3.895975902416e-13 
    5       3.063196057652e-08       5.293193465237e-15       7.746426937181e-12       0.000000000000e+00       8.459090012564e-11       1.522327766935e-09       4.385896773636e-13 
    6       2.684506771020e-08       8.919107663038e-15       1.008623870717e-11       0.000000000000e+00       5.101946347306e-11       1.096863773093e-09       4.619605828597e-13 
    7       2.367359816654e-08       1.309868964377e-14       1.195021381897e-11       0.000000000000e+00       3.308381973999e-11       8.219663358483e-10       4.619031879157e-13 
    8       2.097784832611e-08       1.707880462024e-14       1.316811587842e-11       0.000000000000e+00       2.266116898525e-11       6.345642818223e-10       4.424817803391e-13 
    9       1.866354181476e-08       2.005943981140e-14       1.368147322949e-11       0.000000000000e+00       1.620527711262e-11       5.015547579714e-10       4.083715524760e-13 
   10       1.666118074439e-08       2.145781762479e-14       1.352292643830e-11       0.000000000000e+00       1.200031673424e-11       4.041250261395e-10       3.642373886670e-13 
   11       1.491796153328e-08       2.108237610897e-14       1.279034696485e-11       0.000000000000e+00       1.145069121908e-11       3.256139384984e-10       2.764579644438e-13 
   12       1.339373026795e-08       1.916018507600e-14       1.161908829075e-11       0.000000000000e+00       8.895679031223e-12       2.673585041209e-10       2.264506299242e-13 
   13       1.205620711253e-08       1.622805496693e-14       1.015723391341e-11       0.000000000000e+00       7.042942959401e-12       2.223266233011e-10       1.777534393392e-13 
   14       1.087866487620e-08       1.294640799080e-14       8.547561506288e-12       0.000000000000e+00       5.670589949457e-12       1.873174948881e-10       1.321096875910e-13 
   15       9.838614700893e-09       9.911852485812e-15       6.915784199283e-12       0.000000000000e+00       4.637765829581e-12       1.595190529331e-10       9.120905812601e-14 
   16       8.918245979086e-09       7.531058608999e-15       5.362330361508e-12       0.000000000000e+00       3.850592617686e-12       1.371713118764e-10       5.600321137638e-14 
   17       8.102121121474e-09       5.981858504849e-15       3.959277041528e-12       0.000000000000e+00       3.242499701911e-12       1.189860144185e-10       2.701669239864e-14 
   18       7.374777725355e-09       5.242397917028e-15       2.750136670766e-12       0.000000000000e+00       2.755560307807e-12       1.038959369724e-10       4.325644441142e-15 
   19       6.731279305786e-09       5.203041252793e-15       1.757957651828e-12       0.000000000000e+00       2.364879646918e-12       9.148650103222e-11      -1.270574374603e-14 
   20       6.154967277018e-09       5.668392151460e-15       9.785482336602e-13       0.000000000000e+00       2.047429803832e-12       8.112984987112e-11      -2.555037233135e-14 
   21       5.640821270826e-09       6.512055068468e-15       4.004816665362e-13       0.000000000000e+00       1.789243512788e-12       7.246487557781e-11      -3.457807261015e-14 
   22       5.179884999609e-09       7.607533007523e-15      -5.876294280180e-15       0.000000000000e+00       1.573800613101e-12       6.504865810849e-11      -4.011155307439e-14 
   23       4.767932994294e-09       8.898900834393e-15      -2.677643846964e-13       0.000000000000e+00       1.394173069512e-12       5.869455480348e-11      -4.279319752800e-14 
   24       4.397447838861e-09       1.034657897136e-14      -4.217590909151e-13       0.000000000000e+00       1.243418241284e-12       5.320734012607e-11      -4.362723034859e-14 
   25       4.065032153322e-09       1.193374072430e-14      -4.958316302610e-13       0.000000000000e+00       1.116478865713e-12       4.848458139905e-11      -4.365654022490e-14 
   26       3.765440782020e-09       1.364918539099e-14      -5.206542446320e-13       0.000000000000e+00       1.007323920221e-12       4.439343976235e-11      -4.388267797754e-14 
   27       3.495690020432e-09       1.548839986926e-14      -5.180779284644e-13       0.000000000000e+00       9.130939830882e-13       4.082788541529e-11      -4.413813328418e-14 
   28       3.251667109969e-09       1.744929760904e-14      -5.086817101000e-13       0.000000000000e+00       8.310742706057e-13       3.766313178320e-11      -4.393969771558e-14 
   29       3.032188777783e-09       1.953479048588e-14      -5.020785592584e-13       0.000000000000e+00       7.600040122802e-13       3.486258259209e-11      -4.335142486659e-14 
   30       2.834763789623e-09       2.174998887926e-14      -5.058641686707e-13       0.000000000000e+00       6.981097521345e-13       3.238510680302e-11      -4.265311529735e-14 
   31       2.655143787022e-09       2.410010618145e-14      -5.275193113697e-13       0.000000000000e+00       6.429516296193e-13       3.016476803548e-11      -4.213267295302e-14 
   32       2.492314455748e-09       2.658704750303e-14      -5.678869612884e-13       0.000000000000e+00       5.939109866036e-13       2.818023122563e-11      -4.183321058442e-14 
   33       2.345025080277e-09       2.921158983787e-14      -6.251733197570e-13       0.000000000000e+00       5.505123426475e-13       2.640658332170e-11      -4.171040537883e-14 
   34       2.211018304063e-09       3.197359998967e-14      -6.968451252137e-13       0.000000000000e+00       5.119190813006e-13       2.480524003783e-11      -4.169081948240e-14 
   35       2.089428377621e-09       3.486971914965e-14      -7.806858209398e-13       0.000000000000e+00       4.776045673563e-13       2.335927392650e-11      -4.165536492455e-14 
   36       1.979022423908e-09       3.789479115271e-14      -8.739940356603e-13       0.000000000000e+00       4.468483775974e-13       2.204782205298e-11      -4.144572824036e-14 
   37       1.878025826683e-09       4.104252276738e-14      -9.738326425574e-13       0.000000000000e+00       4.187707901188e-13       2.084352892474e-11      -4.091609302375e-14 
   38       1.786032401118e-09       4.430586861940e-14      -1.079042970275e-12       0.000000000000e+00       3.931767236191e-13       1.974010398096e-11      -4.010481429653e-14 
   39       1.702609166711e-09       4.767667985117e-14      -1.188850219960e-12       0.000000000000e+00       3.699550836222e-13       1.873245331868e-11      -3.911966995915e-14 
   40       1.626718503426e-09       5.114553485004e-14      -1.302311834126e-12       0.000000000000e+00       3.488353383758e-13       1.780853921325e-11      -3.809394102280e-14 
   41       1.557050023852e-09       5.470270998976e-14      -1.418554795964e-12       0.000000000000e+00       3.294683297643e-13       1.695317798336e-11      -3.716062981876e-14 
   42       1.493270909385e-09       5.834159551708e-14      -1.537603397384e-12       0.000000000000e+00       3.117331710948e-13       1.616235265538e-11      -3.636119792895e-14 
   43       1.435095229055e-09       6.205630510966e-14      -1.659804858997e-12       0.000000000000e+00       2.955072709520e-13       1.543255681163e-11      -3.570979591566e-14 
   44       1.381910227790e-09       6.584076820431e-14      -1.785613018599e-12       0.000000000000e+00       2.805734592985e-13       1.475651475994e-11      -3.521778489379e-14 
   45       1.332972220432e-09       6.968849137174e-14      -1.915466229859e-12       0.000000000000e+00       2.666820337651e-13       1.412539984762e-11      -3.488282906753e-14 
   46       1.288124240951e-09       7.359171270044e-14      -2.049360021991e-12       0.000000000000e+00       2.537758840903e-13       1.353697215345e-11      -3.465299243711e-14 
   47       1.247249537459e-09       7.754202685131e-14      -2.187159319276e-12       0.000000000000e+00       2.418204965341e-13       1.298937419191e-11      -3.445139759222e-14 
   48       1.210056353941e-09       8.153062470533e-14      -2.328716850083e-12       0.000000000000e+00       2.307375042206e-13       1.247868510690e-11      -3.418501348624e-14 
   49       1.176065164997e-09       8.554829748495e-14      -2.473873116132e-12       0.000000000000e+00       2.204015155471e-13       1.199877172005e-11      -3.374374425436e-14 
   50       1.144741251066e-09       8.958498413349e-14      -2.622440658369e-12       0.000000000000e+00       2.106746645231e-13       1.154304726666e-11      -3.303419820616e-14 
   51       1.115964463576e-09       9.362825905322e-14      -2.774151890961e-12       0.000000000000e+00       2.015286759825e-13       1.111065596707e-11      -3.209391482293e-14 
   52       1.089664906695e-09       9.766444100487e-14      -2.928697054299e-12       0.000000000000e+00       1.929504513053e-13       1.070170971514e-11      -3.100656835383e-14 
   53       1.065682956402e-09       1.016789970125e-13      -3.085737929352e-12       0.000000000000e+00       1.849058790444e-13       1.031546933889e-11      -2.987070128118e-14 
   54       1.043763334778e-09       1.056565249909e-13      -3.244907067950e-12       0.000000000000e+00       1.773384384855e-13       9.950285422274e-12      -2.880044514687e-14 
   55       1.023625688025e-09       1.095818393228e-13      -3.405808205992e-12       0.000000000000e+00       1.701853838568e-13       9.604137109058e-12      -2.789886297295e-14 
   56       1.005210427552e-09       1.134435831912e-13      -3.568019386642e-12       0.000000000000e+00       1.634342042124e-13       9.276540828859e-12      -2.716857024396e-14 
   57       9.884835817502e-10       1.172314831987e-13      -3.731089264782e-12       0.000000000000e+00       1.570777434202e-13       8.967012084450e-12      -2.658017284174e-14 
   58       9.733627620949e-10       1.209353500837e-13      -3.894535284178e-12       0.000000000000e+00       1.510971523763e-13       8.674473914377e-12      -2.609736176402e-14 
   59       9.597142181042e-10       1.245451043205e-13      -4.057842953850e-12       0.000000000000e+00       1.454611775237e-13       8.397221012812e-12      -2.567656725966e-14 
   60       9.473498922942e-10       1.280508017184e-13      -4.220465124444e-12       0.000000000000e+00       1.401254493728e-13       8.132883849413e-12      -2.526661296378e-14 
   61       9.360758162467e-10       1.314424705201e-13      -4.381849597563e-12       0.000000000000e+00       1.350439770975e-13       7.879054294970e-12      -2.482015770951e-14 
   62       9.258566554221e-10       1.347095220547e-13      -4.541530832629e-12       0.000000000000e+00       1.302082568799e-13       7.635407768339e-12      -2.433180454242e-14 
   63       9.166830402487e-10       1.378412526243e-13      -4.699057634197e-12       0.000000000000e+00       1.256157192689e-13       7.401995926026e-12      -2.380797086914e-14 
   64       9.085221941615e-10       1.408270395627e-13      -4.853966807296e-12       0.000000000000e+00       1.212579799463e-13       7.178612593309e-12      -2.325588319177e-14 
   65       9.013166175728e-10       1.436563608536e-13      -5.005783332779e-12       0.000000000000e+00       1.171205155366e-13       6.964778873180e-12      -2.268360525714e-14 
   66       8.949827718434e-10       1.463188147493e-13      -5.154020542679e-12       0.000000000000e+00       1.131823394159e-13       6.759728255280e-12      -2.210006620603e-14 
   67       8.894097632533e-10       1.488041393897e-13      -5.298180295563e-12       0.000000000000e+00       1.094156775212e-13       6.562391724833e-12      -2.151508872246e-14 
   68       8.844865714080e-10       1.511026807216e-13      -5.437769794909e-12       0.000000000000e+00       1.057932348769e-13       6.371704528655e-12      -2.093781105368e-14 
   69       8.801930828548e-10       1.532068625030e-13      -5.572355609556e-12       0.000000000000e+00       1.023124296063e-13       6.187631939294e-12      -2.037151885913e-14 
   70       8.765252238538e-10       1.551100507727e-13      -5.701520964526e-12       0.000000000000e+00       9.897550954011e-14       6.010325541740e-12      -1.981781191507e-14 
   71       8.734674725326e-10       1.568061624308e-13      -5.824850656720e-12       0.000000000000e+00       9.578226825091e-14       5.839813421495e-12      -1.927810489125e-14 
   72       8.709922728935e-10       1.582896963230e-13      -5.941931655926e-12       0.000000000000e+00       9.272991499819e-14       5.675993500035e-12      -1.875361442267e-14 
   73       8.690594488215e-10       1.595557643247e-13      -6.052353705826e-12       0.000000000000e+00       8.981294467377e-14       5.518626870270e-12      -1.824534618140e-14 
   74       8.676156180914e-10       1.606001224248e-13      -6.155709925000e-12       0.000000000000e+00       8.702300774698e-14       5.367331132003e-12      -1.775408194828e-14 
   75       8.665936063757e-10       1.614192018103e-13      -6.251597407932e-12       0.000000000000e+00       8.434878021000e-14       5.221573727392e-12      -1.728036668479e-14 
   76       8.659273551618e-10       1.620103470656e-13      -6.339619533115e-12       0.000000000000e+00       8.177877556583e-14       5.080809773248e-12      -1.682423535833e-14 
   77       8.656010793649e-10       1.623725122057e-13      -6.419392044718e-12       0.000000000000e+00       7.931066027915e-14       4.944939307386e-12      -1.638436448614e-14 
   78       8.656080508604e-10       1.625057486314e-13      -6.490539177002e-12       0.000000000000e+00       7.694340865197e-14       4.813921702621e-12      -1.595874166455e-14 
   79       8.659356358799e-10       1.624110440336e-13      -6.552692671328e-12       0.000000000000e+00       7.467444288298e-14       4.687634925355e-12      -1.554489412024e-14 
   80       8.665650267340e-10       1.620903577243e-13      -6.605492412172e-12       0.000000000000e+00       7.249956334188e-14       4.565871834070e-12      -1.513987044545e-14 
   81       8.674709735353e-10       1.615466559679e-13      -6.648587063134e-12       0.000000000000e+00       7.041287884354e-14       4.448336477806e-12      -1.474022233321e-14 
   82       8.686215159204e-10       1.607839473126e-13      -6.681634702955e-12       0.000000000000e+00       6.840673692229e-14       4.334640394651e-12      -1.434198631254e-14 
   83       8.699777147735e-10       1.598073179212e-13      -6.704303461521e-12       0.000000000000e+00       6.647165410616e-14       4.224298910223e-12      -1.394066548364e-14 
   84       8.715014604170e-10       1.586228560161e-13      -6.716280028223e-12       0.000000000000e+00       6.459859244318e-14       4.116851343714e-12      -1.353230705083e-14 
   85       8.731809721158e-10       1.572373334300e-13      -6.717295404484e-12       0.000000000000e+00       6.278637543708e-14       4.012252630468e-12      -1.311698017409e-14 
   86       8.750090536323e-10       1.556585357950e-13      -6.707104606397e-12       0.000000000000e+00       6.103537939403e-14       3.910540137446e-12      -1.269584386473e-14 
   87       8.769752620267e-10       1.538954017104e-13      -6.685479928964e-12       0.000000000000e+00       5.934526663229e-14       3.811713932869e-12      -1.227010259967e-14 
   88       8.790657751182e-10       1.519580562098e-13      -6.652211714415e-12       0.000000000000e+00       5.771495518921e-14       3.715735167183e-12      -1.184100647346e-14 
   89       8.812632589472e-10       1.498578442287e-13      -6.607109120528e-12       0.000000000000e+00       5.614258852835e-14       3.622524454024e-12      -1.140985135019e-14 
   90       8.835467352366e-10       1.476073640721e-13      -6.550000888949e-12       0.000000000000e+00       5.462550524644e-14       3.531960251185e-12      -1.097797901555e-14 
   91       8.858914488537e-10       1.452205008822e-13      -6.480736113509e-12       0.000000000000e+00       5.316020878052e-14       3.443877241580e-12      -1.054677732876e-14 
   92       8.882687352717e-10       1.427124601058e-13      -6.399185008552e-12       0.000000000000e+00       5.174233711493e-14       3.358064714206e-12      -1.011768037457e-14 
   93       8.906513150867e-10       1.400994025873e-13      -6.305237138092e-12       0.000000000000e+00       5.036774536041e-14       3.274327149114e-12      -9.692037572308e-15 
   94       8.930303763304e-10       1.373972143745e-13      -6.198794129846e-12       0.000000000000e+00       4.903600553907e-14       3.192679912133e-12      -9.270698154243e-15 
   95       8.954008282427e-10       1.346226129088e-13      -6.079777280838e-12       0.000000000000e+00       4.774737960789e-14       3.113180136161e-12      -8.854364182940e-15 
   96       8.977560458719e-10       1.317935565381e-13      -5.948130722557e-12       0.000000000000e+00       4.650173867164e-14       3.035866384743e-12      -8.443714401044e-15 
   97       9.000878120322e-10       1.289292725158e-13      -5.803822154416e-12       0.000000000000e+00       4.529854796612e-14       2.960757886898e-12      -8.039402584446e-15 
   98       9.023862592622e-10       1.260502849999e-13      -5.646843577221e-12       0.000000000000e+00       4.413685184145e-14       2.887853771951e-12      -7.642055895464e-15 
   99       9.046398117826e-10       1.231784430520e-13      -5.477212026635e-12       0.000000000000e+00       4.301525874529e-14       2.817132304358e-12      -7.252273236014e-15 
  100       9.068351274541e-10       1.203369486371e-13      -5.294970306643e-12       0.000000000000e+00       4.193192620614e-14       2.748550118541e-12      -6.870623600787e-15 
  101       9.089570397358e-10       1.175503846220e-13      -5.100187723020e-12       0.000000000000e+00       4.088454581660e-14       2.682041453711e-12      -6.497644430425e-15 
  102       9.109884996427e-10       1.148447427746e-13      -4.892960816790e-12       0.000000000000e+00       3.987032821659e-14       2.617517388700e-12      -6.133839964694e-15 
  103       9.129105177039e-10       1.122474517634e-13      -4.673414097700e-12       0.000000000000e+00       3.888598807668e-14       2.554865076792e-12      -5.779679595664e-15 
  104       9.147053485073e-10       1.097862987967e-13      -4.441691561796e-12       0.000000000000e+00       3.792849900274e-14       2.493976289334e-12      -5.435513430258e-15 
  105       9.163666592772e-10       1.074859683332e-13      -4.197928359410e-12       0.000000000000e+00       3.699750673301e-14       2.434839085964e-12      -5.101309534552e-15 
  106       9.178906331111e-10       1.053710858236e-13      -3.942276649504e-12       0.000000000000e+00       3.609321545092e-14       2.377457158847e-12      -4.776877959625e-15 
  107       9.192728269166e-10       1.034672979670e-13      -3.674915098353e-12       0.000000000000e+00       3.521564049684e-14       2.321821191952e-12      -4.461947836801e-15 
