# dimensionless total [l(l+1)/2pi] C_l's
# for l=2 to 3000, i.e. number of multipoles equal to 2999
#
# -> if you prefer output in CAMB/HealPix/LensPix units/order, set 'format' to 'camb' in input file
# -> if you don't want to see such a header, set 'headers' to 'no' in input file
# -> for CMB lensing (phi), these are C_l^phi-phi for the lensing potential.
#    Remember the conversion factors:
#    C_l^dd (deflection) = l(l+1) C_l^phi-phi
#    C_l^gg (shear/convergence) = 1/4 (l(l+1))^2 C_l^phi-phi
#
# 1:l     2:TT                     3:EE                     4:TE                     5:BB                     6:phiphi                 7:TPhi                   8:Ephi               
    2       1.493511853142e-10       7.293754024712e-15       4.825225314098e-13       0.000000000000e+00       8.742342212725e-09       4.846546159262e-10      -2.510773269110e-12 
    3       1.408228026246e-10       1.235865548802e-14       6.069651910264e-13       0.000000000000e+00       5.424169895495e-09       3.459551276250e-10      -2.208126302455e-12 
    4       1.323884393857e-10       1.443305799972e-14       6.275884385290e-13       0.000000000000e+00       3.776576224648e-09       2.633537763447e-10      -1.761726267244e-12 
    5       1.256976780935e-10       1.335135742410e-14       5.876263970914e-13       0.000000000000e+00       2.818142389589e-09       2.089430484322e-10      -1.307940853988e-12 
    6       1.207632852949e-10       1.030523994831e-14       5.170753805980e-13       0.000000000000e+00       2.199392420811e-09       1.705940606588e-10      -8.939430767712e-13 
    7       1.173020058947e-10       6.832131906126e-15       4.362704494507e-13       0.000000000000e+00       1.773481433677e-09       1.423123417753e-10      -5.439930850950e-13 
    8       1.149828945302e-10       4.038184487027e-15       3.574797905466e-13       0.000000000000e+00       1.465926067649e-09       1.207162728779e-10      -2.688720232786e-13 
    9       1.135657111801e-10       2.334327667639e-15       2.879589174442e-13       0.000000000000e+00       1.234848443061e-09       1.037543547808e-10      -7.022200797969e-14 
   10       1.128389443827e-10       1.569971012394e-15       2.317494822446e-13       0.000000000000e+00       1.055785549893e-09       9.017248573701e-11       5.726062582494e-14 
   11       1.126580319783e-10       1.344129753015e-15       1.905641983300e-13       0.000000000000e+00       8.890713914446e-10       7.942136770428e-11       1.231274873185e-13 
   12       1.129269091256e-10       1.286724448977e-15       1.640939184354e-13       0.000000000000e+00       7.768630896402e-10       7.022310930133e-11       1.420309831239e-13 
   13       1.135122997460e-10       1.199549744423e-15       1.505828731540e-13       0.000000000000e+00       6.847535755694e-10       6.268408039077e-11       1.276677533729e-13 
   14       1.143176973567e-10       1.054090948367e-15       1.474564888573e-13       0.000000000000e+00       6.081154631812e-10       5.614381344106e-11       9.282880713431e-14 
   15       1.153513042091e-10       9.100265458574e-16       1.517022252649e-13       0.000000000000e+00       5.436068920198e-10       5.067713701252e-11       4.972251589643e-14 
   16       1.165846942191e-10       8.288031895178e-16       1.603263865832e-13       0.000000000000e+00       4.887596471688e-10       4.605562894399e-11       7.441368978750e-15 
   17       1.179155481608e-10       8.279628529908e-16       1.708345650474e-13       0.000000000000e+00       4.417096514385e-10       4.207391432919e-11      -2.768567596553e-14 
   18       1.193629467250e-10       8.803605519911e-16       1.813192936916e-13       0.000000000000e+00       4.008715461887e-10       3.852758717809e-11      -5.213535555624e-14 
   19       1.209348614141e-10       9.533216612302e-16       1.908313566412e-13       0.000000000000e+00       3.655987863033e-10       3.539087645838e-11      -6.500156730409e-14 
   20       1.225664978718e-10       1.013221303797e-15       1.986739460746e-13       0.000000000000e+00       3.345313672076e-10       3.262301003256e-11      -6.706536160137e-14 
   21       1.242716200439e-10       1.062910930789e-15       2.048788891145e-13       0.000000000000e+00       3.071816811441e-10       3.018121938567e-11      -6.043977618180e-14 
   22       1.260548256712e-10       1.120449706895e-15       2.098311733759e-13       0.000000000000e+00       2.828960506597e-10       2.798105759538e-11      -4.846127756559e-14 
   23       1.279029803489e-10       1.205222816919e-15       2.140315026240e-13       0.000000000000e+00       2.613408073078e-10       2.598649654648e-11      -3.410281533041e-14 
   24       1.297798715258e-10       1.335837014208e-15       2.180808080647e-13       0.000000000000e+00       2.420177914948e-10       2.415912053599e-11      -2.050002578665e-14 
   25       1.317043409009e-10       1.512715918138e-15       2.224299630109e-13       0.000000000000e+00       2.247000400848e-10       2.251113232917e-11      -9.489974797714e-15 
   26       1.336924108870e-10       1.728865874749e-15       2.274490926222e-13       0.000000000000e+00       2.090744881178e-10       2.105011830029e-11      -2.389907697628e-15 
   27       1.357251117186e-10       1.977903528734e-15       2.331799011427e-13       0.000000000000e+00       1.949538134571e-10       1.974393454603e-11       6.164747661359e-16 
   28       1.377655132167e-10       2.253450706450e-15       2.394870001922e-13       0.000000000000e+00       1.820946249383e-10       1.854101342122e-11      -8.146131505783e-17 
   29       1.398229691973e-10       2.555004257266e-15       2.460684562123e-13       0.000000000000e+00       1.704313242900e-10       1.743587799472e-11      -3.700568507660e-15 
   30       1.419115855470e-10       2.883765625746e-15       2.524735569548e-13       0.000000000000e+00       1.598387513179e-10       1.642841255156e-11      -9.050237451368e-15 
   31       1.440350789684e-10       3.240320147416e-15       2.581721787090e-13       0.000000000000e+00       1.501009372763e-10       1.550935204384e-11      -1.472571398020e-14 
   32       1.461963035797e-10       3.622573616177e-15       2.627868824498e-13       0.000000000000e+00       1.411676788728e-10       1.467030629889e-11      -1.984818919516e-14 
   33       1.483885635561e-10       4.026942796641e-15       2.659369237514e-13       0.000000000000e+00       1.329758945655e-10       1.389560439484e-11      -2.357444428428e-14 
   34       1.505990415141e-10       4.450318861378e-15       2.672563419396e-13       0.000000000000e+00       1.254110507539e-10       1.316545659477e-11      -2.512690348542e-14 
   35       1.528346204054e-10       4.895287348466e-15       2.666814825614e-13       0.000000000000e+00       1.184344885515e-10       1.247955193050e-11      -2.460006956483e-14 
   36       1.551034474622e-10       5.366800383454e-15       2.642664559636e-13       0.000000000000e+00       1.119902922269e-10       1.184082477670e-11      -2.244681326718e-14 
   37       1.574082146615e-10       5.870010303142e-15       2.601060466193e-13       0.000000000000e+00       1.059946542802e-10       1.124939377818e-11      -1.922551538187e-14 
   38       1.597491103328e-10       6.407291878995e-15       2.543191607344e-13       0.000000000000e+00       1.004321192321e-10       1.070429917883e-11      -1.542009029775e-14 
   39       1.621206061376e-10       6.980283175014e-15       2.470652852253e-13       0.000000000000e+00       9.528506942405e-11       1.020179039675e-11      -1.157577619649e-14 
   40       1.645097684828e-10       7.590685360489e-15       2.385527834013e-13       0.000000000000e+00       9.050444796776e-11       9.734466680064e-12      -8.356840132133e-15 
   41       1.669021188209e-10       8.239925718405e-15       2.289801487582e-13       0.000000000000e+00       8.602685775501e-11       9.293707295146e-12      -6.380160864031e-15 
   42       1.693031952030e-10       8.928010385913e-15       2.183295559134e-13       0.000000000000e+00       8.183914615545e-11       8.878653668401e-12      -5.633089299455e-15 
   43       1.717228290773e-10       9.654301185853e-15       2.065111520046e-13       0.000000000000e+00       7.793022850940e-11       8.489633026117e-12      -5.878498110920e-15 
   44       1.741689435473e-10       1.041780110046e-14       1.934177790079e-13       0.000000000000e+00       7.427170760674e-11       8.125555230637e-12      -6.807731478327e-15 
   45       1.766469778202e-10       1.121749939350e-14       1.789283445984e-13       0.000000000000e+00       7.082802339006e-11       7.784453076103e-12      -8.083298950539e-15 
   46       1.791585467525e-10       1.205358062544e-14       1.629220973921e-13       0.000000000000e+00       6.759376865089e-11       7.465577749968e-12      -9.493002493436e-15 
   47       1.817019536681e-10       1.292654055285e-14       1.452664820972e-13       0.000000000000e+00       6.456518457773e-11       7.167726302641e-12      -1.083407345079e-14 
   48       1.842722175036e-10       1.383685055386e-14       1.258119183668e-13       0.000000000000e+00       6.172890526113e-11       6.888556564478e-12      -1.186806363666e-14 
   49       1.868608031545e-10       1.478495726388e-14       1.043908108013e-13       0.000000000000e+00       5.906124322813e-11       6.624505502800e-12      -1.231897506376e-14 
   50       1.894590292903e-10       1.577123973300e-14       8.086340678205e-14       0.000000000000e+00       5.653532542288e-11       6.371826349941e-12      -1.196090016961e-14 
   51       1.920700078969e-10       1.679586803340e-14       5.527234127481e-14       0.000000000000e+00       5.414644222267e-11       6.130221280084e-12      -1.091332639766e-14 
   52       1.946994794748e-10       1.785890564288e-14       2.772833019504e-14       0.000000000000e+00       5.189234412825e-11       5.900053656596e-12      -9.422755827370e-15 
   53       1.973523245180e-10       1.896034626183e-14      -1.631825220450e-15       0.000000000000e+00       4.976565584874e-11       5.681287135347e-12      -7.782486890339e-15 
   54       2.000324669179e-10       2.010011144995e-14      -3.264402380711e-14       0.000000000000e+00       4.775353126891e-11       5.473456669775e-12      -6.334956357354e-15 
   55       2.027427721420e-10       2.127808960058e-14      -6.515624273654e-14       0.000000000000e+00       4.584157405964e-11       5.275887143806e-12      -5.391560862554e-15 
   56       2.054849334430e-10       2.249426961544e-14      -9.916091035609e-14       0.000000000000e+00       4.402753048950e-11       5.088479297650e-12      -4.963431548919e-15 
   57       2.082593881851e-10       2.374863629818e-14      -1.346932901258e-13       0.000000000000e+00       4.231039384944e-11       4.911068255941e-12      -4.967880239243e-15 
   58       2.110652258992e-10       2.504113119011e-14      -1.717941278138e-13       0.000000000000e+00       4.068626188950e-11       4.743174079712e-12      -5.304206069071e-15 
   59       2.139000914820e-10       2.637165181752e-14      -2.105100184300e-13       0.000000000000e+00       3.914815797985e-11       4.583982419294e-12      -5.852822390791e-15 
   60       2.167600883969e-10       2.774005093901e-14      -2.508937731602e-13       0.000000000000e+00       3.768585227191e-11       4.432325167229e-12      -6.474383677730e-15 
   61       2.196413593517e-10       2.914608058022e-14      -2.929942658448e-13       0.000000000000e+00       3.628870293874e-11       4.286998541671e-12      -7.038581390867e-15 
   62       2.225454619291e-10       3.058921116125e-14      -3.368224790830e-13       0.000000000000e+00       3.495532972629e-11       4.147844537145e-12      -7.520059793774e-15 
   63       2.254750332920e-10       3.206877025010e-14      -3.823784532584e-13       0.000000000000e+00       3.368580426341e-11       4.014878989979e-12      -7.922578127252e-15 
   64       2.284321764675e-10       3.358399173786e-14      -4.296611669468e-13       0.000000000000e+00       3.247874021517e-11       3.887967098397e-12      -8.251308361607e-15 
   65       2.314184167720e-10       3.513401333419e-14      -4.786685700436e-13       0.000000000000e+00       3.133121026878e-11       3.766814781844e-12      -8.512903474487e-15 
   66       2.344346582362e-10       3.671787406279e-14      -5.293976168922e-13       0.000000000000e+00       3.023866311949e-11       3.650960040302e-12      -8.715565728729e-15 
   67       2.374811400299e-10       3.833451175695e-14      -5.818442994114e-13       0.000000000000e+00       2.919484045651e-11       3.539764313617e-12      -8.869114950193e-15 
   68       2.405578510324e-10       3.998287262739e-14      -6.360012804076e-13       0.000000000000e+00       2.819344858763e-11       3.432594416291e-12      -8.983958562854e-15 
   69       2.436659684914e-10       4.166227134502e-14      -6.918501625915e-13       0.000000000000e+00       2.723375219741e-11       3.329430464511e-12      -9.067606728303e-15 
   70       2.468066339335e-10       4.337209975647e-14      -7.493677053753e-13       0.000000000000e+00       2.631597010931e-11       3.230366174629e-12      -9.127570494637e-15 
   71       2.499804895256e-10       4.511172162263e-14      -8.085280583436e-13       0.000000000000e+00       2.543958347886e-11       3.135425487683e-12      -9.172437030892e-15 
   72       2.531876462168e-10       4.688047298044e-14      -8.693027330047e-13       0.000000000000e+00       2.460329765523e-11       3.044558802770e-12      -9.211909816830e-15 
   73       2.564276518811e-10       4.867766250469e-14      -9.316605745420e-13       0.000000000000e+00       2.380500404280e-11       2.957639210423e-12      -9.256848832736e-15 
   74       2.596994594594e-10       5.050257186981e-14      -9.955677335657e-13       0.000000000000e+00       2.304174196277e-11       2.874458725985e-12      -9.319310749203e-15 
   75       2.630013951021e-10       5.235445611165e-14      -1.060987637864e-12       0.000000000000e+00       2.230966051474e-11       2.794724522982e-12      -9.412589116926e-15 
   76       2.663318201590e-10       5.423239463517e-14      -1.127880284869e-12       0.000000000000e+00       2.160497458172e-11       2.718133480402e-12      -9.547366357923e-15 
   77       2.696913269397e-10       5.613481207097e-14      -1.196200032538e-12       0.000000000000e+00       2.092711841545e-11       2.644619844913e-12      -9.719270791506e-15 
   78       2.730808873421e-10       5.805987029599e-14      -1.265897352438e-12       0.000000000000e+00       2.027610050457e-11       2.574146097672e-12      -9.919113046761e-15 
   79       2.765011771816e-10       6.000560737918e-14      -1.336919431794e-12       0.000000000000e+00       1.965154298250e-11       2.506626521179e-12      -1.013653406476e-14 
   80       2.799525585611e-10       6.196993488064e-14      -1.409210131314e-12       0.000000000000e+00       1.905266387482e-11       2.441925038536e-12      -1.035996555768e-14 
   81       2.834350622417e-10       6.395063515080e-14      -1.482709943009e-12       0.000000000000e+00       1.847825934647e-11       2.379853052717e-12      -1.057659046794e-14 
   82       2.869483700124e-10       6.594535862958e-14      -1.557355948017e-12       0.000000000000e+00       1.792668594916e-11       2.320167285829e-12      -1.077230342732e-14 
   83       2.904917970605e-10       6.795162114555e-14      -1.633081774426e-12       0.000000000000e+00       1.739584286858e-11       2.262567618380e-12      -1.093167121612e-14 
   84       2.940646608884e-10       6.996704456073e-14      -1.709824432335e-12       0.000000000000e+00       1.688368254289e-11       2.206769230230e-12      -1.104112050297e-14 
   85       2.976674969506e-10       7.199013045814e-14      -1.787546213356e-12       0.000000000000e+00       1.638987866557e-11       2.152737497641e-12      -1.109919486630e-14 
   86       3.013010131568e-10       7.401961035977e-14      -1.866216361137e-12       0.000000000000e+00       1.591440343910e-11       2.100488256633e-12      -1.110793357954e-14 
   87       3.049657102750e-10       7.605421515332e-14      -1.945804589231e-12       0.000000000000e+00       1.545701504780e-11       2.050016065072e-12      -1.106980999758e-14 
   88       3.086618707980e-10       7.809267648125e-14      -2.026281154507e-12       0.000000000000e+00       1.501724878533e-11       2.001293290698e-12      -1.098774625589e-14 
   89       3.123895478103e-10       8.013372812973e-14      -2.107616930552e-12       0.000000000000e+00       1.459440818219e-11       1.954269199155e-12      -1.086512796966e-14 
   90       3.161485538548e-10       8.217610741766e-14      -2.189783481078e-12       0.000000000000e+00       1.418755613320e-11       1.908869042031e-12      -1.070581893298e-14 
   91       3.199384497996e-10       8.421855658571e-14      -2.272753133330e-12       0.000000000000e+00       1.379550602498e-11       1.864993144883e-12      -1.051417581794e-14 
   92       3.237585337049e-10       8.625982418530e-14      -2.356499051490e-12       0.000000000000e+00       1.341681286347e-11       1.822515995274e-12      -1.029506287380e-14 
   93       3.276080950078e-10       8.829855999074e-14      -2.440987916840e-12       0.000000000000e+00       1.305011614293e-11       1.781317902599e-12      -1.005343350846e-14 
   94       3.314872449889e-10       9.033297863914e-14      -2.526156549484e-12       0.000000000000e+00       1.269524671271e-11       1.741387405263e-12      -9.792971119880e-15 
   95       3.353961912049e-10       9.236114773466e-14      -2.611931889893e-12       0.000000000000e+00       1.235227075359e-11       1.702732651079e-12      -9.517270071672e-15 
   96       3.393349759091e-10       9.438108974621e-14      -2.698238051150e-12       0.000000000000e+00       1.202114887920e-11       1.665349739197e-12      -9.230259233128e-15 
   97       3.433034685595e-10       9.639078193488e-14      -2.784996290873e-12       0.000000000000e+00       1.170173209189e-11       1.629222255240e-12      -8.936210733018e-15 
   98       3.473013583282e-10       9.838815628134e-14      -2.872124983137e-12       0.000000000000e+00       1.139375773847e-11       1.594320806449e-12      -8.639748713393e-15 
   99       3.513281466099e-10       1.003710994133e-13      -2.959539590389e-12       0.000000000000e+00       1.109684546597e-11       1.560602556823e-12      -8.345858083396e-15 
  100       3.553831395305e-10       1.023374525327e-13      -3.047152635372e-12       0.000000000000e+00       1.081049317752e-11       1.528010762253e-12      -8.059893273072e-15 
  101       3.594654404565e-10       1.042850113436e-13      -3.134873673046e-12       0.000000000000e+00       1.053407298804e-11       1.496474305670e-12      -7.787586987169e-15 
  102       3.635739425029e-10       1.062115259791e-13      -3.222609262505e-12       0.000000000000e+00       1.026682718007e-11       1.465907232181e-12      -7.535058958947e-15 
  103       3.677073210427e-10       1.081147009291e-13      -3.310262938899e-12       0.000000000000e+00       1.000786415958e-11       1.436208284210e-12      -7.308824703990e-15 
  104       3.718643170692e-10       1.099923026252e-13      -3.397741514495e-12       0.000000000000e+00       9.756360583103e-12       1.407284032306e-12      -7.114294988646e-15 
  105       3.760446470121e-10       1.118424989046e-13      -3.484975011726e-12       0.000000000000e+00       9.512207546352e-12       1.379122827387e-12      -6.951024530010e-15 
  106       3.802482024310e-10       1.136635654813e-13      -3.571899382992e-12       0.000000000000e+00       9.275444553088e-12       1.351730018240e-12      -6.816834796256e-15 
  107       3.844747658930e-10       1.154537834799e-13      -3.658450462944e-12       0.000000000000e+00       9.046059381514e-12       1.325105044849e-12      -6.709258240086e-15 
