# dimensionless total lensed [l(l+1)/2pi] C_l's
# for l=2 to 2500, i.e. number of multipoles equal to 2499
#
# -> if you prefer output in CAMB/HealPix/LensPix units/order, set 'format' to 'camb' in input file
# -> if you don't want to see such a header, set 'headers' to 'no' in input file
# -> for CMB lensing (phi), these are C_l^phi-phi for the lensing potential.
#    Remember the conversion factors:
#    C_l^dd (deflection) = l(l+1) C_l^phi-phi
#    C_l^gg (shear/convergence) = 1/4 (l(l+1))^2 C_l^phi-phi
#
# 1:l     2:TT                     3:EE                     4:TE                     5:BB                     6:phiphi                 7:TPhi                   8:Ephi               
    2       1.117039269927e-10       5.765881789806e-15       5.711588418817e-13       2.711413997289e-19       1.182007907757e-08      -9.972722702687e-11      -2.357566836999e-12 
    3       1.091604853326e-10       1.054166503255e-14       6.659878753660e-13       5.425795873737e-19       7.169197748613e-09      -3.878112991677e-11      -2.101858002752e-12 
    4       1.067620054797e-10       1.368023450155e-14       6.771939439378e-13       9.049481641784e-19       4.959418788398e-09      -1.534528941027e-11      -1.756122173716e-12 
    5       1.047854309794e-10       1.430725348044e-14       6.385763532028e-13       1.358613540776e-18       3.684861834737e-09      -4.753375595706e-12      -1.399057858163e-12 
    6       1.033430951298e-10       1.269656691423e-14       5.725911126620e-13       1.904009477815e-18       2.866156851965e-09       5.180668119402e-13      -1.058664529337e-12 
    7       1.024308821917e-10       9.809861181972e-15       4.956676116120e-13       2.541622339007e-18       2.304952545131e-09       3.165138529813e-12      -7.527541369609e-13 
    8       1.019669845036e-10       6.705513814549e-15       4.181686121514e-13       3.271974741592e-18       1.900958711220e-09       4.438435904973e-12      -4.911432820134e-13 
    9       1.019449834848e-10       4.149935346828e-15       3.462653053413e-13       4.095608247412e-18       1.598387177138e-09       5.019338452008e-12      -2.785672602421e-13 
   10       1.022867618867e-10       2.472006190847e-15       2.836160297131e-13       5.013065774164e-18       1.364448151539e-09       5.256899524046e-12      -1.159440914911e-13 
   11       1.028880329935e-10       1.620360761223e-15       2.323354436296e-13       6.024874415437e-18       1.120325885467e-09       6.115791608501e-12      -2.132869791755e-15 
   12       1.037601443575e-10       1.328588859010e-15       1.931987597390e-13       7.131529339575e-18       9.761986622717e-10       5.923904495956e-12       7.020274661852e-14 
   13       1.047963647425e-10       1.291403832185e-15       1.660377650859e-13       8.333479391951e-18       8.582903951668e-10       5.477178817912e-12       1.060719978745e-13 
   14       1.059780572246e-10       1.285791167857e-15       1.499634571121e-13       9.631114954713e-18       7.605007191281e-10       5.272723209809e-12       1.141653823728e-13 
   15       1.073075462747e-10       1.214004094008e-15       1.433504635108e-13       1.102475852532e-17       6.784397330638e-10       5.049325670009e-12       1.017586925175e-13 
   16       1.087430874243e-10       1.081968591672e-15       1.441050550546e-13       1.251465836400e-17       6.088549558795e-10       4.850552078215e-12       7.659466197930e-14 
   17       1.102073957361e-10       9.459705055893e-16       1.501125995933e-13       1.410098543487e-17       5.493129257109e-10       4.694043708063e-12       4.542151214391e-14 
   18       1.117580343672e-10       8.634883006974e-16       1.591966640114e-13       1.578383212260e-17       4.977453165059e-10       4.558443054922e-12       1.377128259868e-14 
   19       1.134067377789e-10       8.505250134701e-16       1.698522026402e-13       1.756322394012e-17       4.533255028415e-10       4.434781844813e-12      -1.477050613235e-14 
   20       1.150858815209e-10       9.020313510001e-16       1.804786204563e-13       1.943910874926e-17       4.142767408882e-10       4.311901379837e-12      -3.717159989266e-14 
   21       1.167999875936e-10       9.902610187904e-16       1.902404809375e-13       2.141139004420e-17       3.799627938999e-10       4.184796837139e-12      -5.217472139218e-14 
   22       1.185495570596e-10       1.077086592224e-15       1.985591972025e-13       2.347991407197e-17       3.495500334038e-10       4.049530435832e-12      -5.956819126158e-14 
   23       1.203401570177e-10       1.150660992379e-15       2.053373175645e-13       2.564450969750e-17       3.226057554160e-10       3.911031911739e-12      -6.003848538199e-14 
   24       1.221594230765e-10       1.210483712463e-15       2.107099812851e-13       2.790497546731e-17       2.984896096676e-10       3.776146084785e-12      -5.503375722557e-14 
   25       1.240066986685e-10       1.271621024326e-15       2.149616994239e-13       3.026112652352e-17       2.769084356643e-10       3.648237170353e-12      -4.618646112597e-14 
   26       1.258725614360e-10       1.355156329339e-15       2.184993256275e-13       3.271277859799e-17       2.574632722556e-10       3.526964747067e-12      -3.548090226561e-14 
   27       1.277634709271e-10       1.472759320996e-15       2.217557895982e-13       3.525978951395e-17       2.399148740125e-10       3.404155366697e-12      -2.452316771450e-14 
   28       1.296809978735e-10       1.631772257821e-15       2.251757217180e-13       3.790204922273e-17       2.239545298651e-10       3.270930554847e-12      -1.484079111841e-14 
   29       1.316287493209e-10       1.829908609128e-15       2.289545334838e-13       4.063952893821e-17       2.094967587972e-10       3.136878868699e-12      -7.160485845998e-15 
   30       1.335983291343e-10       2.059918506536e-15       2.332078389505e-13       4.347225379893e-17       1.963818684981e-10       3.019405392047e-12      -1.980575624573e-15 
   31       1.355719991655e-10       2.313663545356e-15       2.379966202865e-13       4.640030359756e-17       1.843369297033e-10       2.933402655781e-12       3.297304682600e-16 
   32       1.375550841645e-10       2.589935114340e-15       2.431711160646e-13       4.942384850583e-17       1.732976594237e-10       2.870240456754e-12       1.376297126244e-17 
   33       1.395533416531e-10       2.889456496661e-15       2.484572292349e-13       5.254313845954e-17       1.631845009573e-10       2.810340034862e-12      -2.348054375459e-15 
   34       1.415666058034e-10       3.212634434777e-15       2.535153103433e-13       5.575849550784e-17       1.538539188651e-10       2.734770867222e-12      -6.015878532022e-15 
   35       1.435998564290e-10       3.558798326018e-15       2.580310801881e-13       5.907029430341e-17       1.452566476538e-10       2.648334693981e-12      -1.034069340570e-14 
   36       1.456544675718e-10       3.926651352188e-15       2.616469216337e-13       6.247898605878e-17       1.373219615810e-10       2.564589454275e-12      -1.457852890991e-14 
   37       1.477273723724e-10       4.314794204075e-15       2.639991142311e-13       6.598507900555e-17       1.299445792065e-10       2.496235547637e-12      -1.796960471804e-14 
   38       1.498210516386e-10       4.722940976861e-15       2.649448563975e-13       6.958903154177e-17       1.231046621991e-10       2.442353825488e-12      -2.027638799224e-14 
   39       1.519357147930e-10       5.151085984954e-15       2.644080527808e-13       7.329133177051e-17       1.167799497837e-10       2.396913052457e-12      -2.141817897717e-14 
   40       1.540658844208e-10       5.599177288643e-15       2.623193761933e-13       7.709253094633e-17       1.109092954274e-10       2.352017695625e-12      -2.132911387671e-14 
   41       1.562040415541e-10       6.067606380757e-15       2.586393096990e-13       8.099319268978e-17       1.054138386019e-10       2.300119545235e-12      -2.001306071825e-14 
   42       1.583543813279e-10       6.558870088795e-15       2.534346705818e-13       8.499371169203e-17       1.002769545072e-10       2.241834575027e-12      -1.772583775247e-14 
   43       1.605225601865e-10       7.076448892489e-15       2.468281343364e-13       8.909444233311e-17       9.548462755751e-11       2.180449401195e-12      -1.485508723161e-14 
   44       1.627115741607e-10       7.624396089234e-15       2.389801908200e-13       9.329574815708e-17       9.100146864497e-11       2.119826837098e-12      -1.187735935512e-14 
   45       1.649223495660e-10       8.206460894544e-15       2.300544399714e-13       9.759794860549e-17       8.678327224372e-11       2.063576767886e-12      -9.265781711022e-15 
   46       1.671564077686e-10       8.823067174532e-15       2.200958956063e-13       1.020011402532e-16       8.282316957327e-11       2.012203332214e-12      -7.167659583378e-15 
   47       1.694135047173e-10       9.473487740995e-15       2.091200608672e-13       1.065053221110e-16       7.911638228517e-11       1.965155284454e-12      -5.639507914487e-15 
   48       1.716905873978e-10       1.015665708718e-14       1.971467684401e-13       1.111104412433e-16       7.564630785611e-11       1.921591419820e-12      -4.736001634892e-15 
   49       1.739815550732e-10       1.087115205952e-14       1.842002659068e-13       1.158163896910e-16       7.238364102388e-11       1.880360760154e-12      -4.509653884772e-15 
   50       1.762798218277e-10       1.161558636088e-14       1.702845116858e-13       1.206229877147e-16       6.929516800736e-11       1.840315524107e-12      -4.973599987780e-15 
   51       1.785873781313e-10       1.238996514297e-14       1.553009595386e-13       1.255299353050e-16       6.637500158552e-11       1.801396157117e-12      -5.978786770523e-15 
   52       1.809077762240e-10       1.319466469264e-14       1.391086051335e-13       1.305368421902e-16       6.362030577574e-11       1.763806570470e-12      -7.302891458075e-15 
   53       1.832434393932e-10       1.403005087932e-14       1.215457694237e-13       1.356432367312e-16       6.102195073881e-11       1.727703042857e-12      -8.682293213243e-15 
   54       1.855955550396e-10       1.489647930118e-14       1.024290174395e-13       1.408485621997e-16       5.856408940469e-11       1.693190066605e-12      -9.810015158083e-15 
   55       1.879647010925e-10       1.579426243442e-14       8.159439220070e-14       1.461522355238e-16       5.622897699901e-11       1.660302823091e-12      -1.040902121016e-14 
   56       1.903531524568e-10       1.672356118987e-14       5.903558872591e-14       1.515538491382e-16       5.401380157823e-11       1.628959026847e-12      -1.047814394895e-14 
   57       1.927629602350e-10       1.768446667272e-14       3.479821159235e-14       1.570530127593e-16       5.191729298757e-11       1.598987842841e-12      -1.010364580012e-14 
   58       1.951951919230e-10       1.867702970445e-14       8.941022278757e-15       1.626492940521e-16       4.993463194342e-11       1.570137636196e-12      -9.390075699206e-15 
   59       1.976498530495e-10       1.970125968343e-14      -1.846349340183e-14       1.683422173427e-16       4.805723092799e-11       1.542071297475e-12      -8.461147015032e-15 
   60       2.001258088142e-10       2.075712344545e-14      -4.732855786928e-14       1.741312623303e-16       4.627251508399e-11       1.514361567970e-12      -7.460615473080e-15 
   61       2.026216197849e-10       2.184455817453e-14      -7.757113009000e-14       1.800159641465e-16       4.456740838930e-11       1.486611366081e-12      -6.525731774017e-15 
   62       2.051384454644e-10       2.296351609949e-14      -1.091720029562e-13       1.859962426896e-16       4.294020226832e-11       1.458856903055e-12      -5.698650079900e-15 
   63       2.076776563731e-10       2.411392785369e-14      -1.421282498794e-13       1.920721452644e-16       4.139097433548e-11       1.431247167328e-12      -4.996601604752e-15 
   64       2.102399291193e-10       2.529568863027e-14      -1.764358415319e-13       1.982437536481e-16       3.991801866653e-11       1.403926213391e-12      -4.437572787184e-15 
   65       2.128251970406e-10       2.650865748846e-14      -2.120896684430e-13       2.045111860182e-16       3.851774425891e-11       1.377032453272e-12      -4.040313029602e-15 
   66       2.154326008447e-10       2.775265666000e-14      -2.490835635949e-13       2.108745988805e-16       3.718457349214e-11       1.350697948005e-12      -3.824342437412e-15 
   67       2.180604392507e-10       2.902747085547e-14      -2.874103250195e-13       2.173341889971e-16       3.591084058822e-11       1.325047699115e-12      -3.809959558219e-15 
   68       2.207070329800e-10       3.033282053929e-14      -3.270646329337e-13       2.238901926905e-16       3.468883766361e-11       1.300182120667e-12      -4.009060058484e-15 
   69       2.233736303538e-10       3.166827701687e-14      -3.680524370231e-13       2.305428792836e-16       3.351766128020e-11       1.276121914981e-12      -4.395415142712e-15 
   70       2.260620044808e-10       3.303332881675e-14      -4.103835206013e-13       2.372925597879e-16       3.239757714975e-11       1.252850703144e-12      -4.928356992193e-15 
   71       2.287735664659e-10       3.442740486466e-14      -4.540688692616e-13       2.441395912368e-16       3.132794951095e-11       1.230329737877e-12      -5.561211769993e-15 
   72       2.315093394107e-10       3.584987312407e-14      -4.991207675016e-13       2.510843785466e-16       3.030719451540e-11       1.208496764846e-12      -6.241072345775e-15 
   73       2.342699324137e-10       3.730003923686e-14      -5.455528953491e-13       2.581273763775e-16       2.933273361361e-11       1.187264883973e-12      -6.908571020609e-15 
   74       2.370555145705e-10       3.877714516389e-14      -5.933804249871e-13       2.652690909940e-16       2.840094694107e-11       1.166521410751e-12      -7.497652251793e-15 
   75       2.398657889746e-10       4.028036782560e-14      -6.426201173795e-13       2.725100821259e-16       2.750712670414e-11       1.146126737556e-12      -7.935345377663e-15 
   76       2.427003581826e-10       4.180889930444e-14      -6.932835479562e-13       2.798508453605e-16       2.664664624024e-11       1.125955825212e-12      -8.160990499310e-15 
   77       2.455599550225e-10       4.336220734176e-14      -7.453551439072e-13       2.872914304453e-16       2.581881635727e-11       1.106033929856e-12      -8.188466077525e-15 
   78       2.484453900359e-10       4.493982009472e-14      -7.988102988245e-13       2.948317564379e-16       2.502365079525e-11       1.086423672746e-12      -8.054948645706e-15 
   79       2.513571622427e-10       4.654124909671e-14      -8.536218447895e-13       3.024717244212e-16       2.426069160300e-11       1.067184345479e-12      -7.802635185743e-15 
   80       2.542954411690e-10       4.816598957042e-14      -9.097600081042e-13       3.102112169137e-16       2.352898745257e-11       1.048371645471e-12      -7.478914755576e-15 
   81       2.572600488748e-10       4.981352074098e-14      -9.671923650223e-13       3.180500972811e-16       2.282707195360e-11       1.030037411437e-12      -7.136540116745e-15 
   82       2.602504419811e-10       5.148330614901e-14      -1.025883797480e-12       3.259882091469e-16       2.215294196773e-11       1.012229358872e-12      -6.833799361951e-15 
   83       2.632656936985e-10       5.317479396373e-14      -1.085796448828e-12       3.340253758039e-16       2.150403592297e-11       9.949908155318e-13      -6.634687542602e-15 
   84       2.663048995870e-10       5.488731024551e-14      -1.146891410866e-12       3.421614067459e-16       2.087785720883e-11       9.783539871966e-13      -6.593506798588e-15 
   85       2.693685114938e-10       5.661971771668e-14      -1.209134203264e-12       3.503961198003e-16       2.027401060546e-11       9.623190516860e-13      -6.705357492884e-15 
   86       2.724571928312e-10       5.837070073316e-14      -1.272490125571e-12       3.587293216018e-16       1.969246526147e-11       9.468710979775e-13      -6.947716065581e-15 
   87       2.755714038147e-10       6.013886584129e-14      -1.336922591730e-12       3.671608003351e-16       1.913292894534e-11       9.319859200224e-13      -7.295188038781e-15 
   88       2.787113906118e-10       6.192274029172e-14      -1.402393114903e-12       3.756903252659e-16       1.859483720146e-11       9.176296434917e-13      -7.719417938306e-15 
   89       2.818771744921e-10       6.372077055339e-14      -1.468861292303e-12       3.843176462712e-16       1.807734250627e-11       9.037583525213e-13      -8.188999215407e-15 
   90       2.850685409756e-10       6.553132082741e-14      -1.536284790021e-12       3.930424933701e-16       1.757930342428e-11       8.903177164579e-13      -8.669384168474e-15 
   91       2.882850289826e-10       6.735267156102e-14      -1.604619327855e-12       4.018645762548e-16       1.709927376418e-11       8.772426166051e-13      -9.122793864745e-15 
   92       2.915259199825e-10       6.918301796148e-14      -1.673818664139e-12       4.107835838209e-16       1.663549173493e-11       8.644567729686e-13      -9.508128062017e-15 
   93       2.947905479709e-10       7.102062272526e-14      -1.743838326905e-12       4.197993343448e-16       1.618629874694e-11       8.518908990276e-13      -9.789783858311e-15 
   94       2.980793062962e-10       7.286430372930e-14      -1.814647482234e-12       4.289122528709e-16       1.575149142097e-11       8.395411001741e-13      -9.965824481843e-15 
   95       3.013927729025e-10       7.471301728219e-14      -1.886218831166e-12       4.381229650900e-16       1.533115381832e-11       8.274186091617e-13      -1.004390025641e-14 
   96       3.047313966339e-10       7.656571106691e-14      -1.958525058174e-12       4.474321546673e-16       1.492524103393e-11       8.155319233444e-13      -1.003274914045e-14 
   97       3.080954907878e-10       7.842132477158e-14      -2.031538867424e-12       4.568405648409e-16       1.453357425010e-11       8.038866857541e-13      -9.942228937402e-15 
   98       3.114852266681e-10       8.027879072031e-14      -2.105233019025e-12       4.663490000208e-16       1.415583579028e-11       7.924855661771e-13      -9.783349506057e-15 
   99       3.149006271381e-10       8.213703450402e-14      -2.179580365287e-12       4.759583273871e-16       1.379156417277e-11       7.813281422310e-13      -9.568304970922e-15 
  100       3.183415601743e-10       8.399497561120e-14      -2.254553886972e-12       4.856694784890e-16       1.344014916452e-11       7.704107804419e-13      -9.310505932569e-15 
  101       3.218077324188e-10       8.585152805882e-14      -2.330126729549e-12       4.954834508430e-16       1.310082683481e-11       7.597265173207e-13      -9.024611677999e-15 
  102       3.252986827333e-10       8.770560102304e-14      -2.406272239448e-12       5.054013095319e-16       1.277267460908e-11       7.492649404408e-13      -8.726562390995e-15 
  103       3.288137757515e-10       8.955609947011e-14      -2.482964000314e-12       5.154241888030e-16       1.245460632261e-11       7.390120695143e-13      -8.433611362477e-15 
  104       3.323523982404e-10       9.140187447706e-14      -2.560171446634e-12       5.255531595961e-16       1.214561907601e-11       7.289543649926e-13      -8.160957819192e-15 
  105       3.359145922771e-10       9.324156519237e-14      -2.637845951713e-12       5.357888083027e-16       1.184558243287e-11       7.190916267161e-13      -7.911058007263e-15 
  106       3.395004959844e-10       9.507373660313e-14      -2.715932919225e-12       5.461316038182e-16       1.155454710626e-11       7.094256240891e-13      -7.682923519284e-15 
  107       3.431101441935e-10       9.689692801572e-14      -2.794376025823e-12       5.565820266560e-16       1.127250052418e-11       6.999560514733e-13      -7.475386652847e-15 
